0.0555758959579171,0.00171631394190516,0.0029032285287511,0.00171631394190516,0.00171631394190516,0.00762279521042136,0.00171631394190516,0.0380925248733939,0.00171631394190516,0.0271774837284963
0.0430938917630651,0.00228126082884459,0.00394623612332998,0.00227732771767041,0.0022680974006124,0.000231528645919038,5.66373523716765e-05,0.011710029602589,5.66373523716765e-05,0.00290996734020539
0.0424158532319258,9.82208678071535e-05,0.00240341593928016,6.719358999448e-05,0.00382055374974123,5.73646137993454e-06,1.46363612207019e-06,0.0154373021597653,1.46363612207019e-06,0.00292753305378771
0.0453030488360176,2.50187145002898e-06,0.00226796084066618,1.64410764740454e-06,0.00336864893787526,0.00315653057671609,3.79787204991328e-08,0.0127093768237181,3.79787204991328e-08,0.000114406107141125
0.0310880348653218,0.00221464584316173,0.00227971534377904,0.00226792154151075,0.00434952446152176,0.000408353136616354,9.83046853292387e-10,0.01518661720994,9.83046853292387e-10,2.79097756884282e-06
0.0283112072400486,0.000543656533340982,0.00226687566182947,0.000238730334230016,0.00350452058408105,0.00226655574130725,0.00296457321126448,0.0164146746366364,2.52185287745245e-11,0.00574023815796361
0.0243780453883764,1.68978207034179e-05,0.00318481195162376,6.36193961893413e-06,0.00397655988983637,0.000252995592296638,0.00560657202193248,0.0139742478568375,6.38618110486764e-13,0.00522055179840396
0.0247487391316269,4.0862327454976e-07,0.00212799607753578,1.58173454779343e-07,0.00227453643656342,6.67034850127177e-06,0.00285997302656706,0.0101306246445121,1.59365291239155e-14,0.00418569825568854
0.023464340501937,0.00227796190323833,0.00250734536678713,0.00135397569619934,0.00224062944185116,1.63743876937506e-07,0.00364155521271009,0.0147423079788965,3.91389157275425e-16,0.00225231492739477
0.0281879069796256,0.000106709528383549,0.00512362346759069,0.00183468944936416,0.00395669601502452,0.00227945451207074,0.0192948553297446,0.0117557994535175,0.00224009392480531,0.00293167787412911
0.0243103546600235,2.63764910048249e-06,0.000533192188745378,3.41744981702171e-05,0.00363009494804635,6.77330760136549e-05,0.0306839546978503,0.021036852242567,0.000427026256699858,0.00790050809500963
0.0303839031749506,0.0716943185310634,0.0166491251252745,8.85625397196404e-07,0.00228257491068706,1.65874548919009e-06,0.0767364617404955,0.0184634506872889,0.0602842250215153,0.0178000215180911
0.0300957472376513,0.0955014245116262,0.0670397334520247,0.0226147026860144,0.00918252579991486,0.00432444777081924,0.122190296796947,0.0251219084432717,0.0989503335967059,0.00863937972451572
0.0320612768316501,0.0520775992196045,0.102336995874541,0.0287313798563438,0.0109524502337098,0.00488007044447833,0.359862779216253,0.0315533184513342,0.0521778589622047,0.0128867688784885
0.0239075568001577,0.00999803981530187,0.0442388815429267,0.00738832668998182,0.00293609212407025,0.00214698040828771,0.158562044060173,0.030763923669072,0.0602265410049382,0.0133354183368411
0.0300199801672626,0.000280409629453263,0.0100432774017114,0.000258812258931474,0.00375784487018806,6.40312721781915e-05,0.0244288310036238,0.0186434813780991,0.0145309185088527,0.00722335760672762
0.0235223436789545,6.77803703625685e-06,0.0205287056763919,6.39975760866526e-06,0.00217045544253789,1.54683350123734e-06,0.0567831217914738,0.0179400466954567,0.0565460776962523,0.00878986299610524
0.0321020310256684,0.00223962714069783,0.0192092966757886,0.00302117051277283,0.00227389779121816,0.00361006274430163,0.0541835481268216,0.0155917045755467,0.0907292106383169,0.0338335945503744
0.0317438330463169,0.0293124991067752,0.00532310579511632,0.00256297115974919,0.00382666091309225,0.000727237512060949,0.0701242291193717,0.0226842638863097,0.0501894594803722,0.0876029784684263
0.0276086434536813,0.0017316659107574,0.0043737838553218,9.27715741047131e-05,0.002340243909284,2.03278692831466e-05,0.03826602203418,0.013405453519836,0.00345362529716573,0.0157942285063725
0.0124626545649608,4.32141322034195e-05,0.00140678808268333,0.00227807564830178,6.86460026555694e-05,5.12753794515192e-07,0.0188322661096257,0.00969592243179687,8.99586857968129e-05,0.000497925308756245
0.0571958996258801,1.0970018890905e-06,0.00382994967872186,0.00226541085825769,0.00313299297917974,1.27388102546724e-08,0.0256412401175934,0.0181443040409734,2.33118257433475e-06,0.00645230179675151
0.033110675719916,2.82707991752609e-08,0.00335986506016715,0.00230639649389136,0.0031270462891052,3.12119576296278e-10,0.0173244359985062,0.01160990359198,5.99419096118199e-08,0.00681495495151647
0.0298996826902688,0.000327431137212229,0.00240797377101029,0.000107228383773915,0.00392233186424088,7.56518277294351e-12,0.0180738533495186,0.0155016424897399,1.5224512644962e-09,0.0028663963723259
0.0304985112815071,0.00225647726004262,0.0031826113799954,2.63920276705524e-06,0.00519726177273575,1.8239593077593e-13,0.0155865745632338,0.0161716279753863,0.0022486648088499,0.000165341705962605
0.0252155235518995,4.00300909413426e-05,0.00311532391328371,6.36197942112678e-08,0.0039239929591629,4.40845910361868e-15,0.00426132389865677,0.0122532350855175,0.000379338805044365,4.50770920567465e-06
0.0421147742477259,1.00500354010165e-06,0.00452018734623968,1.53971512152188e-09,0.00325439701748685,1.07103322302826e-16,0.00247695601956075,0.0126599698327978,1.06193328524155e-05,0.00362702400355041
0.0354726147648654,2.48065612033221e-08,0.00169512653122261,3.77420809955404e-11,0.00390189105107422,4.4455057061147e-18,0.00282492797696119,0.0179879902743681,2.60140135209146e-07,0.000496322406911735
0.0343578779841699,6.04527969335806e-10,0.00322583927491829,9.42801296034489e-13,0.00459871331460454,4.1730491691397e-18,0.002272769219002,0.0171670051673896,6.4926494259643e-09,0.00371175699295402
0.0463473066913338,0.00135397569357416,0.00311992208331811,2.40105680636254e-14,0.00322883084960246,4.17328946608224e-18,0.00350492684713731,0.0136091231703421,1.65223818593865e-10,0.000940847640455046
0.0440958753354167,0.00183468943714831,0.0031915036047199,0.00214306960181945,0.0022734862854898,4.1732894610064e-18,0.00782969257809716,0.0208423108540286,4.26416575267938e-12,2.68145091029418e-05
0.0302395228148626,0.00715645985076759,0.00241807206216388,0.00077928609951644,0.00322053317324374,4.17328946100642e-18,0.0152422494464165,0.0129721208231714,0.00203699653350676,0.00369254982443694
0.0318241471147002,0.129862239736595,0.0162063320846552,0.012319094032379,0.00611196001679025,4.17328946100642e-18,0.0329833560351897,0.0152937250108213,0.0746656991108904,0.0199601771662082
0.0327238564476506,0.285787797038103,0.0476647637167244,0.0175301214709644,0.00930642014902302,0.00281500648956939,0.100976386572351,0.0273081162517364,0.159695382292965,0.0827958623220312
0.0310157412554449,0.146344419652993,0.0354944001101302,0.00470838356893717,0.00268741763995365,0.000198291327461906,0.0730729670780118,0.0141990953399201,0.143142121519063,0.0406485100860605
0.0310335352990143,0.0963567979075823,0.0303676240372798,0.000276781306062385,0.0022708416045365,4.96397027202611e-06,0.0402928901914169,0.0143306178847165,0.134383919427907,0.00995801825243101
0.0237233655553904,0.0824018756880431,0.0200692030253292,0.00549268290861142,0.00707140030651411,0.00392735479539336,0.0621794979704883,0.0250981813392123,0.0874343703700716,0.00740295807782739
0.0365769919205984,0.140057543104593,0.0256740829458282,0.0173187447205609,0.0093312533760185,0.00176760719408076,0.0602289716076881,0.0157343647244114,0.143471757696345,0.0234475903264941
0.034574737098057,0.0711147879970348,0.011926676005582,0.00543758398399297,0.00385633213320908,4.59824940884245e-05,0.06675552100577,0.0203549687659812,0.071972376416044,0.015036603478879
0.0322110281712957,0.0146516381498708,0.00416838058319412,0.000679207511432561,0.00208697153935546,1.14346049855827e-06,0.0408056574988385,0.0163453994783557,0.0141226033341272,0.0526488936412398
0.0404881725333659,0.0023173969213443,0.0032373156829643,2.00030136015912e-05,0.00254994212296799,0.00206131911742715,0.0519905275901748,0.020006325302644,0.00603627357611594,0.112261248363081
0.0362787379617025,7.52807196219809e-05,0.00333148076975483,4.87736035162482e-07,0.00404320155679316,0.00247822819719074,0.0349953856711484,0.0192593700156389,0.000368560201764276,0.0185473809894016
0.0558105750164685,1.83233957228768e-06,0.00434244573042802,1.20964376978543e-08,0.00228099179365756,0.000265203479103296,0.0282714249277847,0.020291756161246,1.03799298188076e-05,0.00349263756634549
0.0303301193415428,4.416973064984e-08,0.00387298211246003,3.06042068452384e-10,0.00252320919562901,0.00489107970318467,0.0227049142474444,0.0125220147645053,2.51224752559063e-07,0.0106191864788921
0.035053987894758,1.06982259735962e-09,0.00303440929418186,0.00227945468433283,0.00421439609722299,0.000984048113214956,0.0163437260952141,0.0175074823902533,0.00824497921073246,0.00650104035475598
0.0391303053948221,2.62627478540215e-11,0.0024164735143173,6.77331346194687e-05,0.00310279532628349,0.00228275157808006,0.00872323925358762,0.0104923124369455,0.013607715381416,0.00236042615729459
0.037139628813288,6.57211718876497e-13,0.00321980442091097,1.65874701356493e-06,0.00356811256460987,4.45116932816521e-05,0.0172079291287591,0.011090718674213,0.00431698869902308,0.00282319774076437
0.0263060069212373,1.67620413738522e-14,0.00279414914933508,0.00227440819923222,0.00354812510789631,1.1423051272588e-06,0.0163625520239463,0.0122220062102369,0.000140202789841085,8.0907568749018e-05
0.00757070158120162,4.32925835875178e-16,0.00371999682340903,0.000166002309670865,0.00227001515477109,2.95620861170586e-08,0.0144693507001998,0.0114404413239,0.00227844949797883,0.00221466558644317
0.00707969704949613,1.18627382279937e-17,0.000798413024112895,4.19525400819991e-06,0.0031954258201586,7.67063945263312e-10,0.01472457625972,0.0100315749262559,9.91946906524904e-05,0.00457862921415045
0.00512447562107797,8.15565495550212e-20,0.00314520906433768,0.00224919392740311,0.00326847004756539,0.00227520198503179,0.0135136376058,0.00855629506458601,2.52815461744613e-06,0.00173132109866255
0.00370587238182139,2.4655695204679e-24,0.00236323099297031,0.00223433195351719,0.0023907019641949,0.000154738518795391,0.0135171122665286,0.0126421490902162,6.26225466882382e-08,0.00227916712404512
0.00653318056491236,3.05237095811521e-29,0.00313450342790806,0.00232305719136392,0.00222676248057656,4.01228435972155e-06,0.0159068611591742,0.0100046555752696,1.53046353995126e-09,0.00227682432313719
0.00537280772166249,0.020217977449423,0.00322452598870358,0.00290983013819772,0.00332436762537388,9.95704937375802e-08,0.0222463411599106,0.0144661227595018,0.0173176223508939,0.00453091911945949
0.0130234231374842,0.200127320723782,0.032774301517823,0.0199150662686551,0.00867648766319888,0.0010436345282573,0.0529532388636105,0.0147041629694082,0.120020642034435,0.0766539339287454
0.0135778849349583,0.161910804386825,0.0665135035802703,0.0300603388554326,0.0158017188701775,0.0045737209487597,0.0806816961390051,0.0253833393048059,0.129802408377565,0.107771747805313
0.0212722721886902,0.122479396667306,0.095526679855478,0.0260922072069797,0.0150064020710332,0.00557426256663769,0.219965090429002,0.0424044109453832,0.197529261844827,0.0349936377733492
0.0197600633641057,0.137030435497116,0.167148174204027,0.0193940979931402,0.0076333845738033,0.00794248005943778,0.199588148959295,0.0240948570859166,0.274376063942797,0.0310256604918818
0.0110670738560163,0.129112122409952,0.0821688055470783,0.0128509925501666,0.00453417796220565,0.000411094286738532,0.0908054884141485,0.0159337731399982,0.123788135559516,0.0366969068569624
0.0129803663468026,0.16959414200967,0.0429515567897491,0.005126113530828,0.00316506573296223,0.00195408332175606,0.0797626605533926,0.0164879390178996,0.130739084952477,0.0161924471516523
0.0116202347805077,0.15843340586852,0.0263919119144959,0.000230528206121817,0.00178637399467883,0.00117536122872856,0.0523232683057635,0.0181693317682183,0.0945122368590643,0.0519286912925776
0.00879063983405169,0.106193676673123,0.0225850878942208,5.62026596417216e-06,0.00321768835835001,2.87161601204423e-05,0.115836902962267,0.0194050220912397,0.123150270644783,0.0896741050369994
0.00653548487095134,0.0551298801186337,0.0140346062802981,1.35587056025845e-07,0.00316239909122246,7.36421396257242e-07,0.0546642117109136,0.012688772279378,0.0501887223418391,0.0820963275983681
0.00612659183143315,0.00189029043273251,0.00150040863718046,0.00227945461534321,0.00446179384087499,1.90679499170287e-08,0.0258544755468204,0.0118602904254222,0.0100785211273372,0.0199869467024596
0.00513745855374739,4.62785325470744e-05,0.00351774017222197,0.00206212518605188,0.00412978266049573,4.94693214399084e-10,0.0177879579605139,0.0132800079591746,0.00930536155049731,0.0152089643304897
0.00368227948013789,1.12109794674548e-06,0.00365202012939303,0.000976244710694716,0.00236091330969652,1.27606133244077e-11,0.0225445683773164,0.0134158523585644,0.0146291357276029,0.0198443655238651
0.00445567718077115,2.70270167748375e-08,0.00390760637951288,2.68973830930146e-05,0.0022779823817646,3.25531649669888e-13,0.0272747133218908,0.00802696706206857,0.00687848387299065,0.0169291226416946
0.00783432756704515,6.5359061535442e-10,0.00254489970400488,0.00195409473208654,0.00452681552204371,8.18848311835661e-15,0.0276480015520018,0.0126569765765784,0.000104461872390422,0.0124196387533573
0.00481388865418407,1.59957053882875e-11,0.00302268628899083,0.00236878721567846,0.00488499987834883,2.03208021333226e-16,0.0234842303353878,0.00960297725055767,0.00103926271962853,0.00920299675215378
0.0079378086508271,3.98789025623153e-13,0.002286806497495,0.000996594268474344,0.00252144738640931,6.35511425913727e-18,0.0230248073407843,0.0131614577056425,0.0119279529137761,0.0178177258843292
0.0102245060039254,1.01385942860004e-14,0.00311716123349692,0.00195435551410532,0.00316912497527581,4.17208752938288e-18,0.0178501427420273,0.0111336485509744,0.0142399181382018,0.0142191374304718
0.00325311741003411,2.62149195245979e-16,0.00712750787929051,0.00117498421237925,0.000597616381517367,4.17328943726188e-18,0.03125497878368,0.0131777854665928,0.0438725618960135,0.0162071481009055
0.00783614694458724,7.93384583539608e-18,0.00229865971338277,2.87292988684996e-05,0.00224881964122849,4.17328946100728e-18,0.0364934731567007,0.0147686100048045,0.00426523527408367,0.0188174680633834
0.00238212220619233,2.21278315436213e-20,0.000326947701863296,0.00206131732854637,0.00224483190077327,0.0029934157384603,0.0290018914434323,0.00903654972161739,0.00626027586682964,0.0179953970575528
0.00675631915619277,6.32053869344624e-25,0.00226651072187644,0.000975072683266414,0.00313518551070821,0.00135311318890047,0.0200165920344253,0.00951476655866395,0.00323971718217148,0.0184771705771155
0.0174560516755223,0.0891281089331607,0.0625569405648074,0.0318726702943508,0.00700378538439867,0.00176184439457395,0.12076451170926,0.0271310762232426,0.127213610968635,0.040321564126868
0.0274234241075341,0.258183064632921,0.172818936473436,0.0605319031403204,0.0169783890624205,0.00871161656614686,0.142317585952183,0.0388725547598488,0.264592781763779,0.125838934526288
0.0390807221218711,0.276054625547655,0.165210760637774,0.0450061951807059,0.0334510507508755,0.0159329108695984,0.2824408297831,0.0696451790003645,0.15966859004508,0.164131030919457
0.0399301087245291,0.295919852901771,0.244242039123554,0.0522926794024182,0.0412542827789583,0.0147736890526794,0.209021675907722,0.052942651244256,0.347535635896239,0.102284843310517
0.0364863847188292,0.27307108371869,0.287975054634015,0.0521289981994664,0.0327183102592935,0.00958405984371801,0.337183714795009,0.0444156466712576,0.212966697225314,0.138872265873217
0.0230119163444901,0.198426361737939,0.202766262916478,0.0239917666664008,0.0188593975627325,0.00693226692813359,0.163413449156467,0.0250643474247147,0.147384164001628,0.109248338563263
0.015920947467906,0.171708729978451,0.156095246873047,0.0019809446636305,0.00388525517790202,0.00129293995621372,0.0700424395002407,0.021208637076557,0.250708723646752,0.0475738240408096
0.0160432876317163,0.145204586943768,0.0989190879677658,7.34788483984474e-05,0.00299093957978932,3.36986138736008e-05,0.0685009748519262,0.0179024895552071,0.156600588123165,0.0454292679473154
0.0101491503318542,0.124487514368347,0.128270024765376,0.00206131428051099,0.00424232532565515,8.21451228936046e-07,0.0900824990537634,0.0186827419781181,0.212692058935748,0.025064480701084
0.00429389325434045,0.097318101646233,0.045346828311334,0.000975075155341692,0.00400111789752426,1.98493476956806e-08,0.0654836618528159,0.012706182355025,0.0697788622372477,0.0151589491830828
0.00770037160482555,0.0168228429786444,0.0359000172133893,2.68796103014029e-05,0.000350149558160193,4.78572676698368e-10,0.0377611142909644,0.0177667427642446,0.0213939409668216,0.0139605527878858
0.00930687659440708,0.0129697017403783,0.0718428153592917,6.50955918147117e-07,0.00390231608847988,0.0022491929313761,0.037373076134697,0.0130693248951152,0.0760533249513691,0.0181579358834899
0.00833637566233326,0.000714984267441529,0.0364635033332735,1.56916398530737e-08,0.00457300611206044,0.00231945422875557,0.0395510065634784,0.0147069308286895,0.017181400576325,0.0188711061439456
0.00752727801876745,1.75390350511631e-05,0.00380610092663748,0.00197717101043399,0.00447514277785623,0.000135610592953807,0.038291726695584,0.0199871382442192,0.0133667040924529,0.0193231381734117
0.0119666847252008,4.23698055569835e-07,0.00305358186269862,0.00113603517512814,0.00232661542346154,3.57435142738087e-06,0.0317415731868947,0.0135212693901585,0.00895366240920991,0.0128848074526531
0.00411383177384435,1.02163979067299e-08,0.00345248001404831,0.00263055209586691,0.00374518216300589,9.16498769246476e-08,0.0140947670695898,0.0102238283400801,0.00101323508076256,0.0123139976888442
0.0055525569176943,2.48005938012474e-10,0.000277319931516256,0.00102075071874973,0.000712171309406681,2.31946363377845e-09,0.0193396396326835,0.0123285435421651,0.0140597816244301,0.0129625281052991
0.0153347004814179,6.11197060163363e-12,0.00227998739840036,3.16685076488957e-05,0.00453753415681141,0.00224866480869263,0.0233935441348492,0.0129912193835385,0.00779539498888248,0.00845015688499538
0.0147148907874192,1.5362664090465e-13,0.0103565542487943,0.00225791211837034,0.00333317714262043,0.00224479709298802,0.0334427397462262,0.0183673117514841,0.0134314130793883,0.00598314770774339
0.00400160341325414,0.0241795242368254,0.0197698887253435,0.000319719100912547,0.000239400007266796,0.00053929364493818,0.0374766713860595,0.0125939884016467,0.0527599041720295,0.0167840204627377
0.0117940147999152,0.0432120977774892,0.00553136030862933,8.70119274434726e-06,0.00268428597823945,1.59568574698991e-05,0.0409935948606376,0.0158427494205544,0.0308230754552746,0.0204608269995672
0.0146791274482766,0.137389861052373,0.0118894670808144,0.00784148625643076,0.00560157773635452,0.00224866825149239,0.0783149553626542,0.0182991041900404,0.0760504457031059,0.0387973477203795
0.0140550537279091,0.299566302144638,0.0362565285302622,0.023032285006017,0.0189978780220558,0.00573766056583188,0.123574085951757,0.0245090021245437,0.128908443163793,0.0312355746309908
0.0205170963033475,0.112336640665117,0.0140720468921331,0.0128424862496842,0.00704260971041595,0.00130396485726346,0.124536865400565,0.0424637410462276,0.0566007316624519,0.0155890149025907
0.0148813046333072,0.140704435223014,0.0132053867582465,0.0151772049442263,0.00796361516646376,3.39010446169729e-05,0.112822719009759,0.0266281645974769,0.0928710042308532,0.0130452278404336
0.0185554124964971,0.157477385346852,0.0417969957306271,0.000527482486825962,0.000396842171102179,8.32194090069437e-07,0.0924318343633225,0.0363982320396978,0.0861653286597885,0.015121141310881
0.0110191114874012,0.0755056799585166,0.0325367615552474,1.36079995584668e-05,0.00224883063425475,2.01961316644986e-08,0.103353165313209,0.0227075314174605,0.0944828774872217,0.0225536883881945
0.0104431528656611,0.0176784523709634,0.0212613245663264,0.00221464379447993,0.00264160075673828,4.87083666085412e-10,0.06015709362114,0.0177418665333428,0.0706260912594447,0.0450832465635627
0.0135661626420825,0.0362238396093055,0.0564553444760197,0.00226220234772931,0.00294391753893706,1.17628739086092e-11,0.0571054304847572,0.0196786128104044,0.0870016361999885,0.097270131686885
0.00826980557582645,0.000682523359151571,0.0160180483003928,0.00238859976973547,0.00322237782368669,2.86977438165199e-13,0.0442306627548445,0.0166025121528837,0.0841075754769467,0.0441445285721251
0.00129824156336513,1.70117577596886e-05,0.0223376129549376,0.000105786384634176,0.00375318876490349,7.1253000076046e-15,0.0274135759027932,0.0139631991924897,0.0668949591642952,0.0183033906353452
0.00758375653790077,4.14112059509856e-07,0.00535132063325547,2.66247455699316e-06,0.000361145813299136,1.80442426613965e-16,0.0499805871272632,0.0181975308875499,0.0179516729616155,0.015426754270617
0.00544705170028157,9.99949646670351e-09,0.00208747304625874,0.00135397573559502,0.00227980827791114,6.15248791112155e-18,0.0535983887443777,0.0121400040083283,0.00666990765854412,0.0113743613497518
0.00633595373023472,2.41164119783659e-10,0.000967417832671839,0.00183468964637342,0.00307094090329278,3.61895436890165e-18,0.0374747766701888,0.0141940516427,0.00947338324853586,0.00965504200910847
0.00561548496533901,5.85994402501409e-12,2.6662962814862e-05,3.41744996349214e-05,0.00103857737958403,3.61865608125321e-18,0.0298326293324891,0.0225498384851458,0.00854565450095187,0.0167477963145765
0.0038066462129589,1.44637105811714e-13,0.00395256365811776,8.85625408457469e-07,0.00227468760482402,0.00221464617642272,0.0212700375165777,0.0132681326529307,0.0145598472009885,0.0162974215364378
0.00653405992482084,3.64194297925107e-15,0.00314916188510066,2.26919611148164e-08,0.00228596752601593,0.00233034050955526,0.0306318522656475,0.0126530250851368,0.0169809284425233,0.0141801249178603
0.00568925045436836,9.28240251951113e-17,0.00320658025698429,5.73784087775459e-10,0.00440779657735253,0.00227863520452421,0.0337932727042838,0.0115718914661121,0.00760868450041603,0.0173715277554498
0.00358412482095686,4.44751338060931e-18,0.00427490487578142,1.42962728155786e-11,0.00327176767598889,6.93624242044593e-05,0.0339741509799887,0.00778405444405647,0.00686014092253933,0.00964516939308445
0.00648729295948817,3.61867541582396e-18,0.0029685418629911,0.0029000887258811,0.00199046730686903,1.77916989491459e-06,0.0253218212481824,0.0135524750282753,0.0131864393673736,0.00278522849704173
0.00935918636080276,0.0996508822133887,0.0432337279601175,0.0273364149174279,0.00397316584751262,0.00214306995417795,0.0254304916864121,0.0116526448735957,0.0714433996396428,0.069202978785943
0.0156664965979672,0.10641355980587,0.0559761653738608,0.0415476070986918,0.00274029886215435,0.0012966720781878,0.0402721410624048,0.0126009443754491,0.092824161206259,0.124382508012712
0.0264044121438551,0.211809070587586,0.0499563187765647,0.0341789167994772,0.00622247082721278,0.00262215852674226,0.0801438680632544,0.0160017741106577,0.170801586970635,0.124055338628529
0.0164125818390683,0.239711085038005,0.0924874963420701,0.04191908176606,0.0209114764522756,0.00660426144651149,0.165684798136457,0.0393547681360181,0.243808523182432,0.103122330458208
0.0210097350259599,0.170553945973334,0.129612875336215,0.0333102670336681,0.0264594191097246,0.00586455738513534,0.12089855921843,0.0343738627683909,0.138054241808895,0.0968531211416062
0.0185261238132258,0.140111845072936,0.134338978683105,0.022345218566554,0.0070022994109639,0.000569053070052362,0.172475869000136,0.0298150818508291,0.165240334994438,0.0916141149236586
0.0175310879287141,0.239693096294145,0.170240718798159,0.0138173604456881,0.00557456712452362,1.61495215796982e-05,0.088090621644817,0.0197356729366917,0.268983003240708,0.0783062172318004
0.0122705263275959,0.151461184925823,0.130265620801476,0.0183653570416095,0.00495890540830804,0.00226427135011123,0.0819010692018439,0.0256216119681465,0.383561521921883,0.0404229710194704
0.0122456112796721,0.0446501613049053,0.0691441745258166,0.0014935300646778,0.00397123443207419,0.000271194925571911,0.083053655597483,0.0164405972003133,0.174718717606348,0.0303024108271018
0.0139078490472048,0.092574395593355,0.080136813520585,3.72986024984772e-05,0.00324115067023104,7.26228262722678e-06,0.127980966575215,0.0275548769130279,0.160305492543256,0.102539076643011
0.0132946342906483,0.0290835225009964,0.0581122371282518,0.00221463756496485,0.00379491650812171,1.86968592000791e-07,0.0612410782423795,0.0190534070385159,0.116039405987397,0.0512465656721148
0.00458969674140589,0.012041069567184,0.101052957860689,0.000543695014851802,0.00229778660107092,4.84965340873001e-09,0.0546831773096734,0.0180105333162711,0.173833386878692,0.0182266385875151
0.0144812516262214,0.0128277328170013,0.145328210174728,0.00226801341141513,0.00216878888981444,0.0022798261141339,0.0384230653271175,0.0134919082039326,0.15694126248653,0.01626573387242
0.00410693402274422,0.0653520463519454,0.105298291943055,0.000239108595478191,0.00403603190166397,5.38064526435003e-05,0.0449045507228075,0.0119015322861796,0.112543047880297,0.0224847424884783
0.012488271420651,0.0104125820569133,0.157765032476661,6.37112455499104e-06,0.000627970963417761,1.39906469830341e-06,0.0389686847950016,0.00973534267856145,0.109730098519345,0.0174006051582242
0.00846214168682823,0.0162203454253256,0.173569956127886,0.00227118734435828,1.8528625183321e-05,3.58992223117285e-08,0.0309175191861496,0.0179360543267746,0.106182588825781,0.00914862808884997
0.00839895816792404,0.00224033164208734,0.124396304758422,0.00226976283615433,0.00296522425540937,9.09356750458921e-10,0.0285891540512146,0.0142432741265378,0.136593104781181,0.0103165683318809
0.00908352281161155,0.000964544650903205,0.128341032304745,4.28672979905839e-05,0.00135818570433715,2.26994033684582e-11,0.0331036034196028,0.019136973944471,0.0927379643636719,0.00859598013402884
0.011423008562847,0.00784277901213318,0.149682079334676,1.04076997855751e-06,0.00321204446219315,5.5852393689455e-13,0.0625972643298886,0.0218162862329139,0.10290822425247,0.0211998330708173
0.00870325726237749,0.0043124703886011,0.150309004002395,2.55423643264153e-08,0.00228421594350473,1.35780517608155e-14,0.039215522298071,0.0103255991315033,0.128819335615367,0.0141740981886662
0.00935182091387599,0.0237502569258466,0.122228860427956,0.000969196145993104,0.0037482150319833,3.28077868895225e-16,0.0370912747958403,0.0198042545091592,0.148726002906042,0.0131414187243497
0.0112566716689674,0.196414789368799,0.0836284315336683,0.0185980812286384,0.000277606673454021,8.47818805402127e-18,0.025094440228405,0.0238103190454047,0.221090845683792,0.0451277352688555
0.0228062734338436,0.294649145446398,0.0691322664797562,0.0347362490616374,0.00837012129425368,0.00195409323029398,0.0403157353381812,0.0299158680458098,0.195775452231158,0.136818565302595
0.0226217766765167,0.262287315968,0.172305007591575,0.0301124782929993,0.0216557093578836,0.00477870053554009,0.145102980192216,0.0489397045472768,0.250292727818935,0.12945504553317
0.0254796582798744,0.25411300203631,0.166609561047506,0.0344186069508947,0.0228670771012777,0.00999331838472459,0.160340298204997,0.0482077029991129,0.333088879914576,0.116042998105149
0.0268617666334764,0.210955607798925,0.319729987435681,0.0517665192843934,0.0299191310377025,0.00358875220633465,0.175357845986837,0.028226748593023,0.316231900298265,0.086035804082945
0.0210569332638655,0.160532188992709,0.28167663161129,0.0350292306239444,0.0157267080061588,0.00444659693756799,0.0791181694238211,0.0272641786534844,0.360696833571633,0.0677809958985818
0.0137321618771746,0.176929307316016,0.31123673224723,0.0197372394842987,0.00575690651272589,0.00226783468649647,0.124091110786507,0.0283928415301604,0.365705959764537,0.0574096793088164
0.0110998686603365,0.151164649400737,0.12638838340169,0.00164633999259434,0.00461051304424526,4.65573234579964e-05,0.0611578398391875,0.0221890529752148,0.164312302338228,0.0240436034023046
0.00912275996757357,0.115260030055258,0.128977395868125,3.05658077541204e-05,0.000993791499452683,1.13824991592553e-06,0.0491599424827344,0.0173275118243548,0.28044752099033,0.101481850606858
0.00690467699868619,0.0282914997652387,0.0893866974586497,7.78860833144757e-07,0.00312152379067121,0.00207601560089069,0.100401595290246,0.0145105111621324,0.0994554859836828,0.0623600986317254
0.0124781465980799,0.0341799257494674,0.104876909100667,0.00227945582008631,0.00228050603397402,0.00236991398699464,0.0533159089404087,0.0119367214917805,0.171424793634293,0.0277622133429469
0.00495173347950312,0.0184114823274108,0.125571339484652,0.00228056227386828,0.00400808520157505,0.000253861900650798,0.0645660349742353,0.0178542961299534,0.126705349709641,0.0389137669322237
0.00410714643425064,0.011385798877707,0.143934068522743,4.11127894154362e-05,0.00350053932931048,6.82377214568989e-06,0.0490727027355263,0.013589074895142,0.124115323025795,0.0281936488607599
0.00504993384611772,0.000662787962837682,0.0391659963046451,1.00363341841848e-06,0.00406805282649443,1.75576620747188e-07,0.0584923301599316,0.0169667410379167,0.0488524302440114,0.0267678687333888
0.00344359109809546,1.71806425564476e-05,0.00244367679949861,2.48455180497979e-08,0.00371095187616651,4.55345860132421e-09,0.0263841464213406,0.0134649914182021,0.00124883783930657,0.0240447635791102
0.00895662924910554,0.00227794555275095,0.00317182782099758,6.27452459675697e-10,0.00398050870666884,1.17999669089789e-10,0.0255807940616726,0.0147342183332893,3.08589317372047e-05,0.0155858851341808
0.00391608928207994,0.000106709650060743,0.0032601547182478,1.61153709308566e-11,0.00321473967977587,3.03421442156967e-12,0.0228707753533247,0.00983784105090321,7.52747505131484e-07,0.00512161164320995
0.00581483522344607,2.63764207827666e-06,0.00312727361950203,4.17713974608608e-13,0.00228599938223298,7.70681310345821e-14,0.0345540033851013,0.0151460212984294,0.00990287269015344,0.00745569616212986
0.00875271889473701,0.00226426751178056,0.00224372117318772,1.08307554455264e-14,0.00301414072614658,1.9297594255298e-15,0.0328713464018392,0.0134750691553113,0.0147307831638962,0.00449673726020404
0.00826260705486334,0.000271190188339815,0.00273764291849422,0.00227796188632218,0.00467926463051339,4.75541723467436e-17,0.0295543363581448,0.0169607293202063,0.0128839583340271,0.00555657244259054
0.00377044226559821,7.2621753498131e-06,0.0024560491749091,0.00227818388555185,0.0019842876366511,3.65933736407299e-18,0.038752482983953,0.0132135359015621,0.0130358525603597,0.00682674156153243
0.00722250085262621,1.86965567237559e-07,0.0070118025223738,0.000114689799503264,0.00335111262951211,3.61865645321125e-18,0.0832839002077747,0.0165789424513057,0.0124021355771444,0.0055697923913785
0.00865019251449375,0.0252823682484294,0.00296828658617927,0.00227925332550952,0.00443720240631283,0.00278207102158807,0.044670563320541,0.0140936032061501,0.0436466876858717,0.0372780574005544
0.0123622607857729,0.0836408552476956,0.00392161254665625,0.00227713728491601,0.00229074996496229,0.000472788529529257,0.0682249610769658,0.0209387529540225,0.0520131922542711,0.0303347278515459
0.0165613379812484,0.19262338691359,0.0316658638019998,0.0106512943607914,0.0066559253758425,1.25453530098294e-05,0.0957089899994013,0.0154382218452324,0.224226836804611,0.0329742845766566
0.0252160282989105,0.178651965671733,0.0350900004748352,0.0192851575454778,0.00916999594577469,0.00135397560393901,0.118581818393854,0.0328841432474195,0.155270582817629,0.0311713555839169
0.0149405790328668,0.181395975011858,0.102767601991517,0.039107917144612,0.0231202477998678,0.00370503504859842,0.121322513947945,0.0272012560007252,0.13923153580025,0.0294830799673314
0.0138247534700384,0.086235466626115,0.130405752538122,0.0154093948516334,0.0051179450541006,0.00231613096938563,0.0918641790743186,0.0343516831980564,0.150926823176423,0.0243127763032628
0.0103725096200409,0.0722389455666452,0.124586472692539,0.00228705152176491,0.00218272379346139,6.91732980007384e-05,0.0994064785849079,0.0218174244804337,0.1421706103349,0.0162135671797135
0.0131718111271462,0.0106412973967575,0.0702420481703246,3.96188927690886e-05,0.00392286288678064,1.70402107683715e-06,0.0550578764904502,0.0213789211672112,0.0568016542133621,0.0152789590216494
0.00756084762858006,0.0463397318683924,0.00646377528971315,0.00227891472450668,0.00306457572720649,4.24799367076377e-08,0.0588043433593275,0.0209362562948847,0.0627551956455381,0.106191934747701
0.00988372477426106,0.0324870068915992,0.0501771656051829,0.00220127709905901,0.00322944793997375,1.07991515005691e-09,0.0687087308481935,0.0196539005496349,0.0894977845422348,0.136879363875039
0.00339274242950602,0.00576076585209794,0.0672002996617827,0.000599530660371537,0.00472006352732955,2.78544217469897e-11,0.0954284634893133,0.021371479119975,0.09408382622159,0.0928009330631454
0.0101041193398884,0.00228857687105866,0.00657197118167496,1.69071156122285e-05,0.00412791053574809,7.22776306090328e-13,0.0551800946158479,0.0142245667735455,0.0292525935658771,0.0145531412654024
0.00473621398644258,7.35666519161832e-05,0.00437346080400925,4.13353045821149e-07,0.00197854986891354,1.87082253746047e-14,0.0392100324210026,0.0114640116408066,0.00859873261712639,0.01692223844829
0.00629705309630637,0.00226632614936994,0.00296419237343838,1.0288038457352e-08,0.00318936594546896,4.79672600907854e-16,0.0356061502915168,0.0078760780991819,0.0115804783481782,0.0111827412028729
0.0111324934564993,0.00215599399246014,0.00116261966119003,2.6116121733027e-10,0.00318424223062805,1.34177111535539e-17,0.0390545597927639,0.0136856075118135,0.0159553398626897,0.0118718700149904
0.0100170088230821,0.000782194799634013,0.00351679793047478,6.73031942966067e-12,7.77048234407847e-05,9.40090841851483e-20,0.0598649707097602,0.0135682703152371,0.0128096890782057,0.0129576567732699
0.00326831209434677,2.52003381614826e-05,0.00334033831375268,0.00224919293128699,0.00221463498550699,0.00227945468476343,0.0351570887529176,0.0135471252306728,0.00809847351670023,0.0144933408527401
0.0106123077079118,6.30800192954835e-07,0.00231508903157127,0.00333419222872773,0.0032065280097197,6.7733134661274e-05,0.0252489270077985,0.0146592547396957,0.014989916440941,0.00892069540717417
0.00434984044126464,0.00226426788999289,0.00232372471032457,0.000117502645998742,0.00385724314619669,0.00206131237884398,0.042894120826587,0.0131773151210785,0.0129060444717303,0.0113501184927049
0.00447054103459532,0.00226382683940572,0.00803126068692372,0.00227927966249645,0.00322715511704637,0.000975092540403326,0.0326579267698401,0.00878187189669659,0.0390139723189795,0.0139207874432981
0.00944385460095063,0.0492249492541213,0.0314310383358836,0.0208562535351948,0.00330730319399007,2.68787703846159e-05,0.0295090879374994,0.0143418253487116,0.0886278400482553,0.0309326146017827
0.0211575043341266,0.255965293756267,0.0896596954659772,0.0291038785113783,0.00225370667618219,6.50934975496523e-07,0.0418149818838198,0.0232580206509297,0.182727289078304,0.0776231231013745
0.0310533322137896,0.147508020227613,0.0999520590984791,0.0196392972187447,0.00980905785569679,0.000327430965112382,0.09529261708437,0.025454367114792,0.131532252343457,0.0909188898706129
0.0243774032552518,0.091025840561659,0.106388714553511,0.018922576886221,0.00844201255711587,0.00320471660129281,0.097049813671411,0.0268050414273504,0.114769663108656,0.02994284668289
0.0124816430862933,0.180508757978699,0.102996085746175,0.0201430149968262,0.0131025957895759,0.000139250971982839,0.0709866869735171,0.022916953565428,0.155659571445301,0.0605671538428522
0.0131323841911443,0.164073336939751,0.0927851320066401,0.00717124758819637,0.00236873280845985,3.53389498808442e-06,0.0855377417979218,0.022129167558912,0.12042909105506,0.0410342740523485
0.0218143643326619,0.101785951097476,0.118623894123752,0.00480398192225831,0.00471393616074397,8.74493956576842e-08,0.0774371652457713,0.0164005528041624,0.175950679570171,0.0309185692143252
0.0103698957298032,0.113608617051784,0.0529206355163491,0.000204852435263618,0.00402822334114815,2.1354910404758e-09,0.0678411368429499,0.0308077830324612,0.13407828223218,0.0281837684996068
0.0074813993621934,0.0116131129034681,0.0262609456239662,5.2142407420315e-06,0.00265262413270427,5.16519510395705e-11,0.0368080498270571,0.0151093792647002,0.098198517407938,0.0496559899013649
0.00806953062499668,0.000264277956854199,0.0179820383854964,0.00227663371746689,0.000103481356236971,1.24511815399109e-12,0.0335520434949241,0.0152694610380132,0.0364936862358443,0.086921577821335
0.0125222436734558,6.6856448606614e-06,0.0097122938094822,0.000132035390080577,0.00317686192360665,3.01639117304094e-14,0.0242841989912046,0.0144999504536927,0.0191410655122508,0.0318890201787712
0.00377395657356264,1.71916504084841e-07,0.000550276666321352,0.00228024016654159,0.000197140344792061,7.41170718556985e-16,0.0281029524400297,0.0111790193356877,0.0180931554343415,0.0182347010535945
0.00227944115382044,0.00219991366699202,1.34771690833008e-05,4.54200219231201e-05,0.00228286840839996,1.84943045141606e-17,0.0328425523077129,0.0113121726956435,0.0174925212101195,0.0105071358259788
0.00401663244465583,0.000600498313694194,0.00213997153238686,0.00227770726078581,0.00382480940915229,3.62016406189573e-18,0.0281388371408667,0.0123738457842452,0.0153076915918543,0.0241497655321231
0.00254788356315231,1.68977047637211e-05,0.0207128929318201,0.00228165836910654,0.00234975854817807,0.00216251609862977,0.0302590785200919,0.0120438068679033,0.0258590963454424,0.0168515009720123
0.00347344788843464,4.13204335911724e-07,0.0210516915647274,6.87246785950393e-05,0.00227395995598614,0.000723669968194115,0.0183827320887607,0.0141141947952618,0.0551235983635346,0.0344448143210007
0.00724225432275222,1.02869595376033e-08,0.00417993181775875,1.76541571870981e-06,0.00312177937952788,1.81624144209599e-05,0.0368980556481798,0.014431807979467,0.0120892241880085,0.0207194258134191
0.00436743963817662,0.00227958557633385,0.00492437128879241,4.56106107927107e-08,0.00384935292283578,4.6626331985059e-07,0.0244129422473913,0.0154902979172164,0.0152062134152795,0.0187946025836902
0.00674701617958908,6.31757078622061e-05,0.00339872988092275,1.1836787765303e-09,0.00251919489104981,0.00195409328160453,0.0326002991387877,0.0112118816490201,0.016581879547432,0.0243146428342343
0.00436030586745064,1.59469510433988e-06,0.00269607016192332,0.00325857172084936,0.00351856045643899,0.00117524387957762,0.0209268857402902,0.0195354108276214,0.0127887251407308,0.0149879060668312
0.00833843170673432,3.94317156551837e-08,0.00247203372138868,0.000142872632397484,0.00256343430705355,2.87189264367535e-05,0.0374836294802981,0.0171115638006665,0.014548105770569,0.0180091063738928
0.012195252458539,0.0670326989420946,0.0438739709695116,0.0188354512116199,0.00769621608056551,7.36484608243717e-07,0.0357798527017918,0.0350563378179317,0.136948940149414,0.103205957617494
0.024611801450885,0.190508020651763,0.057887321911761,0.016501604930068,0.00634115974049235,0.00652191663297239,0.102884988593608,0.0446514169640873,0.174529141812691,0.135580204632302
0.0283216137360922,0.171755640766465,0.130368150878175,0.0305373746136249,0.0176109440101198,0.00553359176568597,0.0763480289743634,0.0366789172836127,0.184002075641236,0.124593162142724
0.013472846749475,0.184210067078146,0.136532343397015,0.00580893521453679,0.00277442125079439,0.00300632318837861,0.0863303900306382,0.0148244949577004,0.168280948442008,0.0696644082624028
0.0137875636676609,0.123868242521205,0.164004471501661,0.00240502831687243,0.00379110812361074,0.000101342409822746,0.0714852937761237,0.0266874306171485,0.128717083526802,0.0370746536415969
0.0134318207389128,0.163962996903979,0.114934128669036,0.0191361765377837,0.00019406168794424,2.5042011230302e-06,0.114981877703179,0.0224681451086461,0.182093878214808,0.0661611434840272
0.012621200281582,0.10383481219459,0.101049622309452,0.0103450924659846,0.00303563865955642,6.07104727112274e-08,0.0553039633082112,0.0186958978758708,0.144466387978979,0.127934110793028
0.0127023830577557,0.123941489475812,0.186286399915945,0.000353916985312328,0.00242270227203244,1.46379382698658e-09,0.0718477757895504,0.0233438735212435,0.254552849602956,0.144184303698963
0.00625441900398137,0.0800456304873158,0.0782372620661019,8.73623319379251e-06,0.000343962185372646,3.53755353419745e-11,0.0734958596095741,0.0179560471720975,0.112784051052719,0.0972305599000097
0.00297102706356764,0.00290889840023228,0.0227648904079556,2.12727633801447e-07,0.00355538027816066,8.64534839472208e-13,0.0625632266470722,0.012779783051226,0.028441192810553,0.0327052538589448
0.00486602322670714,7.59655493237023e-05,0.00231257891056589,0.00221464615968424,0.00286401362936002,2.15149928558467e-14,0.0441695708595199,0.00967446486664182,0.00406563792810661,0.0230343555705202
0.00297614717607547,1.94472161239132e-06,0.00312497289313206,0.00054365502619905,0.00259231916553174,5.45864459573328e-16,0.0281806011812527,0.00833819806872684,0.0134937554026909,0.0231144827716354
0.0028855916852508,4.91219458745556e-08,0.00377615366186478,1.68977826911752e-05,0.00376872223934124,1.44948565043313e-17,0.0270407941942907,0.0115219786255481,0.0125787362621065,0.0249611928127879
0.00697883566966173,1.2225834455843e-09,0.00231250277561096,4.08622362301527e-07,0.0022925872632656,4.06697645802763e-18,0.0290477912054223,0.012499499759343,0.0176098412313357,0.0301728922708147
0.00131012683169284,3.00024501790798e-11,0.00327357177623841,9.85084372768609e-09,6.51729711566674e-05,0.00227796188632217,0.0274387160236029,0.0120239895055933,0.0177317607969749,0.0245469951914326
0.00227864816407197,7.27986664682797e-13,0.00395871079790869,2.38820115002182e-10,1.67612165584956e-06,0.000106709294877063,0.0372690413118115,0.0113759820355535,0.0155457384854025,0.0223215894716781
0.00712576428803878,1.75564735969409e-14,0.00397300660894283,5.87266005540398e-12,0.00227769090602447,2.63764338475069e-06,0.0297385786907065,0.0106968184701617,0.0166896023079334,0.0277276154529727
0.00793611407205225,4.23727954123235e-16,0.00076083014732678,1.47248656413021e-13,0.00397206277740822,6.50324567854102e-08,0.0172191467854574,0.0137363060699375,0.0187207868132918,0.0209988305598521
0.00680796760361288,1.06509535905425e-17,0.00400371403679942,3.76160124172164e-15,0.00539145255011895,1.63541555781161e-09,0.0362307743098815,0.0134679358953451,0.015991951487342,0.0117441636267856
0.000625275839551754,0.00216251609862977,0.00451219694831304,9.7290925246532e-17,0.00378107246442681,4.18749160683961e-11,0.032998877010887,0.0130530059304745,0.0142035917999647,0.0164862451748091
0.00228001326644678,0.000723669968194114,0.0124186064561699,0.00224919293128899,0.00341860603416405,1.0840989363311e-12,0.0307696366641202,0.0130935039531077,0.044825306030017,0.0261571506385706
0.00420028535324357,1.81624144209603e-05,0.00988536837795736,0.000376194838253312,0.00303889643161342,2.81266523169454e-14,0.040842442928535,0.0114731220828372,0.0252299294366874,0.0229910641288147
0.0105272823198221,0.11039639798632,0.123096800253113,0.00227813609980667,0.00253216787543653,0.00103928394566609,0.0303083801404515,0.0137441282261442,0.17596159155012,0.113582935863709
0.0189188774563115,0.208525864736167,0.0927098013177381,0.0148162523392439,0.00457546562146667,0.00262267225493632,0.0253405098807771,0.0194217404696213,0.193656984325477,0.109407233394055
0.0394351765294601,0.342393657577446,0.0743288543644767,0.0125249357153736,0.000796679449149462,0.00278203641762904,0.0176180592765703,0.0248242295771334,0.206776847046304,0.149354602728684
0.0291294904758707,0.195527333412176,0.0433188474339654,0.00387100187385058,0.00227898348316483,0.00282186735478589,0.0213747777295696,0.0218643756844288,0.130485221740228,0.200720811422075
0.0222797282550298,0.0768110772187032,0.0208131762705838,0.00225153548004703,0.0035813078473797,0.000485210132882241,0.0557744242891682,0.0208874799763808,0.0437521886227559,0.0689052439463246
0.00764554317101965,0.00335577754796572,0.0322543754671149,3.83437829495522e-05,0.0022792586759152,1.28460056020092e-05,0.126448660582326,0.0214380390847056,0.0117606616765606,0.0331870878289756
0.011576987861267,0.00345882469054965,0.0557639739181581,9.6588447520448e-07,0.0022990766495547,3.13374657059087e-07,0.0856185710711079,0.0253143974941203,0.00704215064066474,0.00443811935590229
0.00737004947732145,0.00108403976025446,0.0404515182388562,2.39156471954916e-08,0.00379233921909366,7.57523936503398e-09,0.024081227558958,0.00932452635595196,0.00493788890134309,0.000313045604996055
0.00723438660710991,3.32132718814875e-05,0.00596655973460971,5.84295800197315e-10,0.00320496020763194,1.8262287315506e-10,0.00798740418283253,0.013575482712024,0.000315917530733614,0.00471044274894106
0.00459008374333246,8.01698686441291e-07,0.00318659950923909,1.41366145327959e-11,0.00229646143599774,4.42806587894942e-12,0.00241911947836593,0.0138691663359532,7.98447877223966e-06,0.00512335914682369
0.00031603077235081,1.95195862091433e-08,0.00322486148121448,3.40771379324424e-13,0.00313296223449029,1.08914363552067e-13,0.00342072369346781,0.0108547376411039,2.02762683851898e-07,0.00236629588359944
0.00664592301519072,4.83261923604443e-10,0.00449492884278986,0.00227442394080714,0.000206114806508851,2.73133088429246e-15,0.00259024086040102,0.0222850573206497,5.22655092169771e-09,0.000106825706956919
0.00770861061349682,1.22054558247858e-11,0.00389051847360076,0.000165778087385386,0.00224915125734715,7.04568889404701e-17,0.000544074593715909,0.0176783941521786,1.35606081487813e-10,0.00227761907194725
0.00411662038120883,3.13501976422876e-13,0.000655577175118606,4.18850210985394e-06,0.00321795001062752,0.00227958559314022,0.00742028800243461,0.0114701628443649,3.51121837973489e-12,0.00011228978948638
0.00588348221979367,8.12688996801668e-15,0.00225147589965595,1.01062361832141e-07,0.000572491307313449,6.31757032712697e-05,0.000623866732030981,0.0144023080052118,9.01320684267282e-14,0.00671710113950043
0.00392528711478951,2.11346105396299e-16,0.00327593375960165,2.43892648573599e-09,0.00330030191848013,1.59469498010621e-06,0.00890663802184968,0.0140680543605562,0.00227958559314025,0.00326689480228618
0.00199059731116171,6.32241097623684e-18,0.00317349957454194,5.9390067460772e-11,0.00468779109384175,3.94317123675605e-08,0.0023073381944747,0.0123460438619692,0.00197845854098685,0.001640224284414
0.00403604763386806,3.61887716760145e-18,0.00505166577894547,1.47064111615371e-12,0.000611522989327282,9.6230448826465e-10,0.00193365934460203,0.0141868700825469,0.00113518795362802,0.00521486253907573
0.00863649258708565,3.61865608101259e-18,0.00427126672709836,3.71498349774867e-14,1.34065162960445e-05,2.32672089589656e-11,6.70878587718822e-05,0.0150718958481525,2.6909100512871e-05,0.00297018258737043
0.00479250791635768,0.0202879028341782,0.00206844661077871,9.53999576533673e-16,0.00373214036952036,5.60900257303177e-13,0.0325681676098745,0.0139951875893109,0.0355942591952353,0.0765415352935651
0.0035508926759319,0.170773447439578,0.00249113959755715,2.58338675674432e-17,0.00072330721044878,1.35949478811694e-14,0.0142502305733979,0.014900136565315,0.104427908299969,0.165799323267154
0.0187860309496094,0.177120593649841,0.0323919077065327,3.91289951192215e-18,0.00226820438878303,3.34232698921891e-16,0.0210134011046201,0.0123168989155097,0.164136474930636,0.172367961509877
0.0138309776551526,0.162574962938217,0.0282133648172104,4.17326053520134e-18,0.00433794394336442,8.66829049878546e-18,0.0113225589129398,0.0142849338207467,0.114074577430497,0.145805369250283
0.0228802595277219,0.172230869612124,0.025567408900243,0.00216251609862977,0.00275835203724074,4.0607179252662e-18,0.014868580604826,0.0120829513672596,0.118129651931251,0.154845841334204
0.00785411478180542,0.1740989685481,0.00358976362928098,0.000723669968194114,0.00276221267447063,4.17329206766083e-18,0.00830791625346105,0.0118798608507944,0.0644438341137736,0.122311977340165
0.00774829513023241,0.137393053499691,0.00247301974653032,1.81624144209603e-05,0.000688010364493412,4.17328946094e-18,0.0115914704455359,0.0147157560891758,0.0716357270744073,0.146909040744704
0.00405604841623385,0.0994784986949706,0.0353753819790011,4.66263319850151e-07,0.00226673779329708,0.00228000961650172,0.0381019462470879,0.0170488882269719,0.0408982529487575,0.0801097363531589
0.00495067775378342,0.00280999192124174,0.0285640901880608,1.20815830180179e-08,0.00398895078996598,0.00222479896712035,0.0385119361514697,0.0146924312020222,0.00220465888538644,0.00349018028488145
0.0032883814008087,7.0358245533489e-05,0.00387284129179206,0.00224866480620238,0.00405008631257936,0.000503263507813934,0.0118665390319151,0.0150243240108676,9.71470254761725e-05,0.00221817045270817
0.00405656524596149,1.74706778708124e-06,0.00401814949742319,0.000379338804902118,0.000744094672421754,1.37058898082688e-05,0.00294335754133113,0.0137261459500952,2.36441640361689e-06,0.000543073613704151
0.0101149028471611,4.27864338181e-08,0.00394643159234104,1.06193328909892e-05,0.0029025151537591,3.53948182938209e-07,0.00479583717902851,0.0139289671608842,5.70737678297384e-08,1.68522440753644e-05
0.00452438284427905,1.03675231831629e-09,0.000284478214669332,2.60140135873614e-07,0.00225506298105408,9.04117812576017e-09,0.00433814273488297,0.00913556730074613,1.37680238299736e-09,4.07480946406234e-07
0.00237219061982606,2.49946091441451e-11,0.00322378198731128,6.49264943472224e-09,0.0021960076609729,2.27778486569488e-10,0.00229096674294057,0.00971393191834899,3.34832791466758e-11,9.82351770358657e-09
0.000317398200235802,6.04307721680892e-13,0.0028799764096547,1.65223819120248e-10,0.000725689249365513,5.65422402748254e-12,0.00756169082567792,0.0174880853122912,8.27546063027725e-13,2.38195900116256e-10
8.70203867830855e-06,1.47821364399775e-14,0.00212506385921226,4.26416575088828e-12,0.00319160440675495,1.38437979187096e-13,0.00133448473300925,0.015112799636338,2.08641794344124e-14,0.00318427640303502
0.00568129567032431,3.68823385430049e-16,0.00299433890202082,1.10656074639992e-13,0.00313652664247955,3.35431630152059e-15,0.00197731494757676,0.0165828815205317,0.00227797049545616,0.0046632305099153
0.00227078336378262,1.03582842314998e-17,0.00228145938919503,2.86338961938391e-15,0.00459927147939696,8.09587622241652e-17,0.00512600603831234,0.0132692264326553,0.000106525538638271,0.000814911508859645
6.48994289009894e-05,4.1722119272284e-18,0.00216273592724329,0.00309589456580596,0.0039377862421345,4.2664093239648e-18,0.00631038030324416,0.0117030220087317,2.63020276373648e-06,0.00295857474831368
0.00466271633851106,4.17328950224857e-18,0.00324336341437335,0.000826978585033985,0.005219158664832,0.0021399696467936,0.00305754030128665,0.0134952597306811,6.34360725089155e-08,0.000111427205450011
0.00667563328683908,4.17328946100604e-18,0.00319124799527399,2.2307936182405e-05,0.00333326755058407,0.000787650491874209,0.00510462910644727,0.0112830415778,1.53186225007292e-09,0.0387929117025379
0.00616094648768009,0.153882554975123,0.00348933198214176,5.45290905850048e-07,0.00289416406952064,2.53061806809769e-05,0.00729596840767555,0.0103227298840451,0.0908305269611307,0.117460377711762
0.00830784925857481,0.191000330445501,0.0215926452925882,1.31888892219939e-08,0.00377572232200754,6.33223708912372e-07,0.00998378290032298,0.0122235727695308,0.146375309548541,0.135057560642395
0.0113248920517618,0.227411218779497,0.00500721531007434,3.17930835504613e-10,0.00396024949290354,1.56026915649394e-08,0.0162382124494156,0.00698440588519207,0.135160204753605,0.199766036011847
0.0174454291384103,0.143060288426581,0.00359968847470257,7.7022939553894e-12,0.0020307436697584,3.79717176308116e-10,0.0107241763101259,0.0131596734450684,0.132855740398501,0.0821774832492777
0.0110920815574887,0.142256977613342,0.00327434396307977,1.89161407689047e-13,0.00250245303671549,0.00227945468468203,0.00686900967360572,0.0106289836080386,0.10244960315007,0.0274783567909619
0.00679985295079128,0.121250515545876,0.00228588631357464,4.73596046523994e-15,0.00382928995821201,6.77331348823763e-05,0.00297003841583908,0.00849723218791979,0.0667600850326161,0.0317192647693927
0.00708800978936878,0.00682835002068053,0.000128082551106723,0.00227520198513356,0.00078301519433273,1.65874702018588e-06,0.0103374126074362,0.0125544054502568,0.0017469178589193,0.00638694143980964
0.00474259186245346,0.000164736744168402,0.00386914689614886,0.000154738518289886,0.00228011040779847,4.09931207334604e-08,0.011376089762215,0.0123671174487795,4.35488915921015e-05,0.0031960397125687
0.00781576476519649,3.99214689369756e-06,0.000188353263819775,4.01228434698822e-06,7.10276280219032e-05,1.03344218567695e-09,0.00121818579803762,0.0117608253054327,0.00228011697821452,0.00384089090377411
0.00372379863802355,9.80961427915296e-08,0.00376216854416065,0.00224919254297905,0.00290327969781243,2.65099646801834e-11,3.38437120329756e-05,0.0106447634270064,4.27032083762034e-05,0.00413888534482171
0.0022778096543818,2.45756300469563e-09,0.00486917120742918,0.00037619725511669,0.00357395924471788,6.86832936941312e-13,0.00286181086318983,0.0104548263421155,1.04287118176909e-06,0.00350959341129205
0.0051358339371597,6.27388232035846e-11,0.00301953113158443,0.00213996169589168,0.00179306812057024,1.78137576760857e-14,0.00398477912748308,0.0105820953783484,2.58353912152951e-08,0.0022506938027177
0.00926791315988926,1.62196232538269e-12,0.00354572061075676,0.000787857199841905,3.72693555705448e-05,0.00222397061111805,0.0105083991915278,0.00975486988349449,6.52918547520744e-10,3.88452898724657e-05
0.0023199523937286,4.20919056499648e-14,0.00226625916904251,0.00216268494089419,9.65617779282962e-07,0.000504252051925901,0.00352174132940495,0.0111510239893722,0.00214306960168897,0.00320834539596911
0.00565617246638758,1.08651493043886e-15,0.00314323883503782,0.000724007385482928,0.00434515161593141,0.00227477293495948,0.0028569012022042,0.0115882478150727,0.000779286099869967,0.00236652292665329
0.00342093995199583,2.83072149636201e-17,0.00296134814176261,1.81614731853944e-05,0.00247954211589462,0.000165936922057344,0.00328637206858694,0.00992378205255913,2.1673324763036e-05,0.00287333263856778
0.000226816048245846,4.2051143399682e-18,0.00357340320573525,4.66260054015701e-07,0.000390465584560589,4.1937251236351e-06,0.00470410904856689,0.0122199012797012,5.6052691518691e-07,0.000568354082229486
0.00356009489805288,4.1732867067651e-18,0.00423198013219695,1.20816993116638e-08,0.00262545907329074,0.00227889137802464,0.00909997477683879,0.011576777029285,1.43406246789211e-08,1.67657660725761e-05
0.00547787815411583,4.17328946102604e-18,0.0024325590552152,3.13334857863954e-10,0.00450538777878385,8.44793731074725e-05,0.00235196915831417,0.0130728134618681,3.61960921363759e-10,4.19149070187955e-07
0.00261768332625118,4.17328946100642e-18,0.00227748041088843,0.00224866480910183,0.00256930401097812,2.20990775803049e-06,0.00514974780177602,0.0137664593467022,9.00189207379068e-12,1.0325074125715e-08
0.00236250139497907,0.0495624453038562,0.00221780718912981,0.00037933880449345,0.00299482829665082,5.67832558978708e-08,0.00884538085415384,0.0152189984308055,2.20759010940198e-13,0.0887527953216109
0.00693721988486796,0.180969580027619,0.00266720179796271,0.000327463664388389,0.00415860843625947,1.44089015016078e-09,0.012401153958724,0.0108723663641222,0.0620303849890489,0.128929435115253
0.00480976341037606,0.222809000868159,0.00596131443630066,0.00225646558624473,0.00338845595189619,3.60345510287725e-11,0.010827949814158,0.0138559997122266,0.106855093552461,0.134919976106285
0.0242129634867642,0.239536355277855,0.0244109086390089,4.00315631528596e-05,0.002471304166709,8.88162525069049e-13,0.0123442210951434,0.0124503456743801,0.193188941296436,0.175291007658259
0.0145257291198171,0.164332402267298,0.00370216172827436,1.0050520151417e-06,0.00322443218581843,2.16197765774196e-14,0.00365139683964815,0.0138999224491819,0.0759887095588159,0.0693166054483495
0.00867100868545026,0.189823929450941,0.0115578011216476,2.4808030012984e-08,0.00358837565400694,5.22159969107888e-16,0.00240938202374813,0.0108848557121086,0.126006720914673,0.0724085570416644
0.00897798815412341,0.0602049466391318,0.0120755089264777,6.04569010234401e-10,0.000780056133143294,1.29239723495156e-17,0.00770903099371815,0.0183115713796303,0.0619718141286951,0.0225236915275811
0.00421138111611884,0.00202658561770265,0.00215181417469504,1.46064941907748e-11,0.0029890515106693,4.18514241390478e-18,0.00251834252118278,0.0122547214867143,0.00485454335425776,0.00268575623676696
0.00362720505792735,5.23842869650089e-05,0.00376509441795586,0.00227442394080128,0.00321345954081408,4.17329049858119e-18,0.00540693198774701,0.0108938271297549,0.000133585305936481,0.00345444133723338
0.00557522115889235,1.33896734474872e-06,0.00285089424212277,0.0021694683302986,0.00224594394636583,4.17328946103087e-18,0.000400514273362283,0.0129122197514975,3.29002431224058e-06,0.00300862346018189
0.00327308672258253,3.37589276914117e-08,0.000796292216585989,0.000724262339778359,0.00373341068805421,4.17328946100642e-18,0.00227955848890431,0.00827755469436704,8.26428084677946e-08,0.000244413546954398
0.00552223235335276,8.38649723631283e-10,0.00550666702348454,1.81110257499252e-05,0.00418938982578203,4.17328946100642e-18,0.00332485711277121,0.0107964475151828,2.11423667254624e-09,0.00385291714280415
0.00230008116659647,2.05469967233736e-11,0.0040138170767043,4.65060819006858e-07,0.000956470019722142,4.17328946100642e-18,0.00273580418843585,0.0106374968078235,0.00214306960223151,0.00894137878038261
0.0022599273834299,4.98001168709938e-13,0.00396832030906368,1.20515320890945e-08,0.00399179450892461,4.17328946100642e-18,0.00359393926130352,0.0121124028291509,0.00799519817258287,0.00751617755198494
0.00216197935186174,1.20066836163339e-14,0.000545303541398445,0.00227769174320381,0.00363511260604027,4.17328946100642e-18,0.00223856723818933,0.00846650367431735,0.000174480572711648,0.00965858812316858
0.00299615390705132,2.90725380000456e-16,0.00373076050772048,0.00228490018255539,0.000525440658564333,4.17328946100642e-18,0.00279422545786487,0.00902073260739409,3.20457352790465e-06,0.00994204048686101
0.00661365397791184,7.27085547809526e-18,0.00262166334351628,0.00226650042908838,0.00366788410134557,4.17328946100642e-18,0.00428669745645618,0.0156446611300725,8.05049653234374e-08,0.00178915660992608
0.00300736875735223,4.23460807928812e-18,0.00231278755714807,0.000254504909766822,8.76993120289396e-05,4.17328946100642e-18,0.00328916299802535,0.0122350580037608,0.00228006110206632,0.00731784199327466
0.00411284958835224,4.17329009272458e-18,0.00346633416320456,6.70688370003139e-06,0.00226637638668443,0.00225118316910489,0.00321673846814925,0.0153126123866033,0.00388445394492775,0.00451119119740699
0.000734660861353026,4.17328946099503e-18,0.00530915742743001,1.6193753461526e-07,0.00224060400031614,0.000364110924737163,0.00401736619698507,0.016487481410907,0.00760211024697806,0.000285571793246887
0.00556686018219671,4.17328946100642e-18,0.00321336430522055,0.00227933811283092,0.00453023350996489,0.00226441723078948,0.00597525720467869,0.0135433619103934,0.0061915366719754,0.00202315242720842
0.00115781646221292,0.0265407870686501,0.0151302086192694,7.15477369686493e-05,0.0041195096177934,0.000271192710757761,0.00361260854992143,0.0152544032783663,0.0535026661151531,0.0247107534494986
0.00894589364747213,0.198953919853701,0.007513491417312,1.83847938039791e-06,0.00393955588420529,0.00228016706979421,0.00847438089375714,0.011055124095629,0.11141603539254,0.140672065657176
0.0271676950890471,0.269811767530679,0.0329527594987705,4.75133354039284e-08,0.00225867751975901,4.55484583349142e-05,0.014554114947967,0.0142450253832403,0.162180119817213,0.187573731000526
0.0170005361660146,0.173034638871824,0.01286614745873,1.23305494904307e-09,0.00327783177501381,1.16802803652163e-06,0.0167593044520539,0.00946638868975013,0.168189659671523,0.144808879477947
0.0327260597778844,0.16417531113411,0.033433465896177,0.0022511831692736,0.00228376366624734,0.00227958421579295,0.0210238038176464,0.0111255710940268,0.101505223166027,0.119852115361371
0.0123186228037954,0.193301619778762,0.0154349745778602,0.000364110923927246,0.00387375319160953,6.31763968196602e-05,0.00943030715450855,0.0144556114599737,0.125233120464024,0.146146357939193
0.00674131787910462,0.0738115646319557,0.027392079691609,0.00227975013109182,0.00322001075896469,1.59471305491628e-06,0.0103629411721603,0.0165320789264715,0.0456019767160167,0.0320314051897188
0.00128177034099424,0.00399739530181973,0.0348587662935277,6.34155612346988e-05,0.0032662098091542,3.94321753154628e-08,0.00523742521286709,0.0175393064775493,0.00541888938011583,0.00338923805977428
0.00682049392536075,0.000101508044425638,0.0237588117455249,1.60057681750704e-06,0.00354274677441483,0.0020034756741628,0.00374243951123311,0.0170201673235776,0.0028247108277606,0.00353161497633397
0.00712086953525923,2.50654971264419e-06,0.00466165446830615,0.00219991390923781,0.00293647024339909,0.00198670009224052,0.00487044861817672,0.0170588067092419,0.0121079176450111,0.00704412972621204
0.00482340154308583,6.11030533171219e-08,0.00384331147180807,0.00230908301369985,0.000237525437774586,5.20758186278751e-05,0.00774205467385558,0.0151573194706369,0.00959330359406342,0.0019932400056515
0.00760495699640289,1.47649651254307e-09,0.00227541302443206,0.000502611413055982,0.00214001541747491,1.30460875615982e-06,0.00274540996433037,0.0130631321194528,0.00720801395691279,0.00357471654874824
0.000288821251276304,3.5598567729681e-11,0.00320675695390838,1.35693061052734e-05,0.00240624161360832,3.32773686137185e-08,0.00102069536862583,0.0110704539560127,0.00619881228521158,0.00354597157790098
0.00282047845018768,8.63717893927483e-13,0.00225936287027195,3.50060070600597e-07,0.00228260288064434,8.5993664450736e-10,0.00311877726295394,0.00875657285701028,0.00937056518263207,0.000139353737626323
0.00565072081255225,2.12673975124468e-14,0.00233720683012957,8.92806701939222e-09,0.000159285190983389,2.23169142097444e-11,0.00235387275362453,0.0106377706637573,0.0115060000193078,3.42926105377058e-06
0.000559830289545113,5.34071685294302e-16,0.00263201670835636,2.24530474301892e-10,0.00383463800108617,5.7688561902768e-13,9.11443469793741e-05,0.0194949724904419,0.00670902626194247,0.00224009323615499
1.881202863901e-05,1.37171981413346e-17,0.0019302049857276,5.56382143772804e-12,0.00349223583078274,1.47639043240528e-14,2.23996161941583e-06,0.0132136417854746,0.0137347862229232,0.0038683717254306
0.00996305914432653,4.06699181029984e-18,0.010744192648784,1.36021858557246e-13,0.00230584166928033,3.72465878420851e-16,5.42090449800205e-08,0.010097947043427,0.0291468960009912,0.00618637180201513
0.00420587267310321,4.17329202976937e-18,0.0121259016535466,0.00135397569362659,0.00316859627218704,9.92054400459841e-18,1.30673949310749e-09,0.0135084979192199,0.0341965598899808,0.00704013465962202
0.00247564229748668,4.17328946094123e-18,0.00321186924840099,0.00183468943705652,0.00231035873883511,4.18802130539991e-18,0.00435111607795308,0.0157392060310123,0.0114937051920807,0.000780537935490749
0.00285819307989933,4.17328946100642e-18,0.00233555983503679,0.00227939771420703,0.00322566196240367,4.17328912523809e-18,0.000711372869979692,0.0137962604198452,0.00969979857879338,2.08554753940738e-05
0.00510450895856086,0.00221464617642272,0.00364699020049053,0.00307290590585887,0.0039062495257781,4.173289461006e-18,0.00513059593195502,0.0106577781884483,0.00574110548161264,0.00421699164243338
0.0205971922682994,0.0526609742906802,0.00229185338760798,0.00245622410514308,0.00219935769106822,4.17328946100642e-18,0.0044646674657454,0.0123896794601567,0.0528287714572511,0.0574802020544695
0.0288058315475329,0.203934748745289,0.0171739066640569,0.00141228483031117,0.00322201043327254,0.00195409323029398,0.00678547421673696,0.0109112997829604,0.194554864583981,0.161867021299939
0.0239378910446823,0.247667978877302,0.0476577544117839,0.00290262031152335,0.00227150164130053,0.00117524402491634,0.0230868238242943,0.013574832699026,0.161848386416522,0.145074383782909
0.0384835425280946,0.310658620344323,0.0403264749425424,0.00225041632550996,0.000535788002341688,2.87189308324762e-05,0.0150162890029313,0.013115881081983,0.13594993599415,0.142389687800824
0.0305076242821511,0.212791252801482,0.0329595648107717,0.00517732091674712,0.0032830869614057,0.0056538998318443,0.0234220859542186,0.0129963081131177,0.10133035537736,0.208422375916112
0.0186202140833136,0.227339392780648,0.0163585933898977,0.0022364813864734,0.00175172555868661,0.000512607829883222,0.0098167142371739,0.0110007293159554,0.0914677849922598,0.158806202410633
0.0130386449673602,0.0973675366992129,0.0573071121416905,0.002293322915629,0.00316491191076195,1.25940219720954e-05,0.0127019231863424,0.0409248493166423,0.089529563161103,0.120404396240176
0.00750901202078208,0.0161210528551058,0.00608440742583442,4.43367136413863e-05,0.00035166501865027,3.0369010177275e-07,0.0057194628552686,0.0211119470867476,0.0224427859763369,0.00673943051890822
0.0066215926988092,0.00232847723075275,0.00285657227972667,1.10874722845695e-06,9.75298486024124e-06,7.37437187246408e-09,0.00574437432709505,0.0184772711917142,0.00785145350852743,0.00021786083814474
0.00302582998566643,5.1924743332297e-05,0.00394761853726888,2.81960413722638e-08,0.00227440167241498,1.81825709617544e-10,0.00262027065133539,0.0105178969368907,0.000585901488516081,0.00228011574737746
0.00334011423984942,1.27406966839048e-06,0.00248215094119105,0.00222397061514634,0.00400816105067519,4.572666483161e-12,0.000621238265512474,0.010672435976226,1.47127965218181e-05,5.36915526430207e-05
0.00418326414224034,3.17822223001159e-08,0.00229715667717121,0.000504252033385358,0.0041165221510685,1.17087298730095e-13,0.00225777560800833,0.0130404078048685,3.70789072372757e-07,1.39604257495588e-06
0.00346482368940495,8.08424550180728e-10,0.00390906491207733,1.37351243706351e-05,0.00224414630570318,3.03140018943666e-15,0.00356076105487956,0.0147332641998873,0.0032839326625479,0.00227889418026935
0.000146096670365605,0.00213996964668642,0.00470793090023695,3.54709679486547e-07,0.00317817008981358,7.85881914940779e-17,0.000139752348034674,0.0137286620829181,0.010401084053624,0.00626500985609343
0.00163899900251575,0.000787650492016489,0.00238479815099516,9.06089331492082e-09,0.00229591701747878,4.18451102349034e-18,4.06810886301954e-06,0.0123570658310971,0.0113825337565523,0.00479534768946174
0.00246474439343999,0.00227853845774117,0.00324376826161698,0.00135397569488127,0.00224312306790636,0.00227520198513356,9.8307980633082e-08,0.00955002064757987,0.0130834529174179,0.00288277169979233
0.00810717593705999,0.00225923487308245,0.003226139724932,0.0018346894368582,0.00218778403563207,0.000154738518289888,2.37008350125604e-09,0.013332798874,0.0102335261828057,0.0020024492084035
0.00446299271532003,0.000319056623944548,0.00311020081720363,3.41744981318698e-05,0.0026519342510445,4.01228434698879e-06,0.00227797049745714,0.0186834157552125,0.0140708350444276,0.00112978836439026
0.00475390684481148,0.00221473111364066,0.0036906486636016,8.8562539779468e-07,0.0044748325512869,9.95704934211958e-08,0.0001065255392734,0.0100689933431966,0.015597135630461,0.00318979005346401
0.00332105409867763,0.000543557309979837,0.0005116534892025,2.26919621255218e-08,0.00280556879754114,2.43728977295536e-09,2.630202777635e-06,0.0140587637896076,0.0134741868777789,0.00212965785059476
0.00394333083954752,1.68932492142483e-05,1.37847320203252e-05,0.00227933802850094,0.00224250616673971,5.90381949293861e-11,6.34360728333864e-08,0.0116032825541619,0.0109517858480533,0.00429526224417169
0.00244263003901176,4.08510280716874e-07,0.00228009300099989,7.15478217662536e-05,0.0023105609991679,1.42325373435407e-12,1.53186225875462e-09,0.0117339137913766,0.00910137033771619,0.00432614435448767
0.0228020602705406,0.178147436683378,0.0427360280133072,0.00222395871784617,0.00444432091562593,3.44206744606972e-14,0.00371878471430158,0.0194386076513913,0.129784818178883,0.109073818464496
0.0608359727072708,0.227065273537081,0.10951649428027,0.000504296746766001,0.00368431626767743,8.4196237408803e-16,0.011456066117751,0.0389812118702351,0.316541567824494,0.141293738940765
0.0370964849507575,0.305214712978577,0.149373800243064,0.00376434570793368,0.00399345874791398,0.00359869537322353,0.0197575904081357,0.0279581068892184,0.307401662385876,0.177413138228884
0.0275884018728585,0.272962120687174,0.0401780168348195,0.00999829731736635,0.00469561262683306,0.00536220262636661,0.0246738033068608,0.0378711275360792,0.168380246738065,0.216029261013957
0.026872091361002,0.261177783908446,0.131913084433712,0.00387114515590661,0.00386086243379047,0.00112344521338418,0.0146417585094883,0.0415893927755207,0.253346937860047,0.191756795825217
0.0203608968522242,0.201063750954355,0.106756967440471,0.000524729676057053,0.00225826677517849,3.42761552274954e-05,0.0310605873572544,0.0425707147116207,0.246935358957737,0.143438034225078
0.0158565113316597,0.0628704690131604,0.0338514173822285,1.44334313033094e-05,0.00364339489877483,8.6127610688401e-07,0.0369734970407287,0.0365631803063996,0.121668546247848,0.0228656447876253
0.0158467983021609,0.0141628027904762,0.0342801034336924,3.7315566823499e-07,0.00242458212517515,2.13237851134412e-08,0.0155429082139396,0.0279894621454693,0.11615098442506,0.00729996663296675
0.00422642452056892,0.000716053064248377,0.0171106178005466,0.00227982570296107,0.0030549976107355,5.2093736673678e-10,0.0173071282530792,0.0234552525294729,0.10237042441652,0.00227797671132207
0.00528061739024844,1.7419978566267e-05,0.00367707907729567,5.3806263276996e-05,0.00252302574864253,1.26031945944908e-11,0.00375365733952166,0.0207222882453011,0.00798762991134024,0.00193723304645042
0.00357537764946676,4.1997322316389e-07,0.00410373656821585,1.39905989521368e-06,0.0022881476583855,3.03807543756899e-13,0.00374990167906346,0.0207722672406863,0.00218035036883396,6.67480221878739e-05
0.00320621511850312,1.01535432410108e-08,0.00396798782253089,0.00229909868645656,0.00220388358344759,7.35744687456399e-15,0.00015518692011321,0.0221484703995673,0.000717871225177364,0.0031653712057197
0.00057567680164663,0.00227442394693989,0.00319343535019525,0.00314218103165648,0.00314192685447669,1.80959626399916e-16,3.98416882167038e-06,0.0221525884829029,1.80954683025125e-05,0.000375850164414778
0.00227950867871649,0.000165778089072009,0.00372870358851621,0.000595896451082184,0.00382920318997301,0.00228000961650172,1.02913921114692e-07,0.0145209332609368,0.00578116954300654,1.10761986550892e-05
0.00399192448198515,4.1885021412446e-06,0.00323290769604578,1.73459385396297e-05,0.002149785689313,4.53760348435025e-05,2.63077276461641e-09,0.0230174895107249,0.00435421080681644,2.7840741667792e-07
0.0110205052135291,1.01062362524544e-07,0.00241402204887411,4.23006527086468e-07,0.00341071582690064,1.16351152223629e-06,6.63359336274782e-11,0.0166435480177016,0.00819547842397771,0.00528626809235147
0.00846824402130427,0.00227118472480329,0.00222450525840188,1.04925792026598e-08,0.00225388776449055,3.0100080591625e-08,0.00320392055367271,0.0157928575532958,0.0115711222641211,0.00093528923059692
0.00609406753032122,0.00228238126195288,0.00225405990782053,0.00306649526286648,0.00225305948708294,0.00227520197583965,0.00117634379135786,0.0136634679197737,0.0169528622613241,2.5662263234259e-05
0.00377512928011856,0.000108869371106296,0.00328001829109444,0.000852142623744002,0.00233790130124285,0.000154738537942644,0.00350377629778121,0.0116227321436432,0.0131670509528953,6.30733272562791e-07
0.00436597674456348,2.8118430966806e-06,0.0233424676373681,0.0022400664638285,0.00312684951374984,4.0122848509637e-06,0.00214912382220272,0.0111912853842817,0.0212318839147732,0.00638867021322202
0.00454659633548097,0.11880033450148,0.0173577942140796,0.000427089291868922,0.00237734900606662,9.9570506122308e-08,0.000790024046206452,0.0172191751244074,0.107132832879362,0.019400133806473
0.00911012706187132,0.170693493576012,0.0459390574171136,1.14908617675742e-05,0.00206270514727297,0.00195409323783476,0.0117739828555689,0.0148930795936658,0.159813710095515,0.148048482022303
0.0307783424068351,0.219287675163283,0.0672017046778597,0.00222396883167664,0.0024345795717602,0.00117524400000651,0.0155515606576657,0.0145235390428084,0.149243096901265,0.193058744253119
0.0252145138259565,0.38421151189377,0.0395786358254808,0.000504259484393563,0.00315639262699875,2.87189316997757e-05,0.0104207722412289,0.0178436766722953,0.20965198589817,0.135115830327111
0.0114960060192462,0.236268140952603,0.00993537935265513,0.00226619145217105,0.00245599836137059,7.36484751116332e-07,0.00272128998633057,0.0190718740299569,0.0901680506677638,0.0462335167222361
0.0202278966076492,0.230825227475524,0.0524098117263006,0.00228020043921884,0.00315038335972156,1.90695069776372e-08,0.00348254870870974,0.0174413901763871,0.0905231364303011,0.027688699903909
0.0139842303756248,0.0513738445490758,0.0162515256778935,0.000259715419485623,0.00332637603702899,4.9473436555824e-10,0.0028185904078396,0.0171878814241914,0.0633499490904109,0.00713736310584011
0.00718689311982878,0.00986444013130532,0.00317599648498118,6.82633428332465e-06,0.000605428239216221,1.27617518556661e-11,0.00411559340018434,0.020673657462872,0.0119409678472606,0.00829659567545581
0.00885826639484139,0.00083384823396959,0.00331118889531204,1.64781566904877e-07,0.00313193928460522,3.25562324355752e-13,0.00623616466608021,0.0168501047705488,0.0111665235592695,0.0036810540062763
0.00518930212318979,2.19864617394873e-05,0.000764604018254827,3.97503867031604e-09,7.3013260782473e-05,8.19016018127034e-15,0.00601969926940616,0.0132682387900918,0.0142255778873274,0.00333904736089005
0.0019860979999424,5.59416589179763e-07,2.57458018893352e-05,0.0022400939253693,0.00312496063708757,2.02570806161048e-16,0.00296650449072932,0.0113065075921936,0.0170319618917195,0.00741298311437319
0.00774840384389144,1.4436153400938e-08,0.028190521309112,0.0004270262545026,0.0033204679978653,5.57163482710823e-18,0.00515464055150862,0.0138543666729668,0.0222923582105866,0.00515349457810179
0.00555163124878513,0.00225792064138642,0.00977916776753756,1.14842265973489e-05,0.00202463263806443,4.24810294050012e-18,0.00227533930304462,0.0191490251977628,0.00832824607081765,0.00575334773639376
0.00479129383691733,0.000319723022080664,0.00227634194613514,0.00226635507641409,0.00349546815894858,4.17329043913262e-18,0.000768961266560039,0.0128533356812748,0.00464685436434322,0.00739545228686536
0.00376018734929709,8.70123737950685e-06,0.00227709308491942,0.00229223675885612,0.00319407306478682,0.00225118316910489,0.00678904338934192,0.0154282315393683,0.0141342282851329,0.0119088009280005
0.00234668639675711,2.24427486293287e-07,0.00318624301118451,0.00318962250894318,0.00378186375171898,0.000364110924737164,0.0157182858276031,0.0107783556659106,0.0100766339749291,0.00294298984910263
0.00639352016430255,5.72372991783686e-09,0.00229799165297853,0.000228815300593273,0.000479010709731219,1.00846926080654e-05,0.0100363124348354,0.0146533720506633,0.00142940896034154,0.00520094854981622
0.00229364625207046,1.43940682317774e-10,0.00318453022441158,5.92831252877725e-06,0.00227905332098236,2.51210966551007e-07,0.00888835296675414,0.0145283347104788,3.6410906569473e-05,0.0023767772522561
0.000205081428637145,3.56671430738932e-12,0.00366913062912948,1.51573967815766e-07,5.36370418951693e-05,6.1689623288307e-09,0.0024338230832573,0.00913687719580475,0.00227442301348586,0.000113396402483297
0.00227822698253748,8.71944816086501e-14,0.000783841972115217,3.92148680420875e-09,0.00318504726143806,1.49756888643318e-10,0.00914017540660619,0.0120211043355371,0.000166014421905069,2.91459113654749e-06
0.0100210831114032,2.11007235092038e-15,0.00227819037959601,1.01759032226608e-10,0.000884935720669376,3.61213236332584e-12,0.00145317339178491,0.0176156090135085,0.00227810143443526,0.00103928430190012
0.00842133920314079,0.111596011893667,0.0133008751725941,2.62748769541934e-12,1.86225066395277e-05,8.72152098023866e-14,0.00910716462767121,0.0115239413227233,0.0771131703181451,0.0795821541682434
0.016007074631189,0.237506610350587,0.0290960914355943,6.7128688077425e-14,0.00393740102151262,2.12643508230588e-15,0.0158310520057526,0.0110141294371033,0.211595491884561,0.171176730976118
0.031095241442979,0.169340085335231,0.0473583500704582,0.00227663298307595,0.000232672517382512,5.33084391136862e-17,0.0265351746365199,0.0153281997497499,0.175655016437692,0.164374908765591
0.0173830084424317,0.149076390061126,0.0263222996802681,0.000132038867297095,0.00290226345816271,4.06050341024073e-18,0.0181861467695976,0.0131706119354698,0.0813870756389331,0.143862860999426
0.0147436416374992,0.200285722276642,0.0119474286011229,3.49003859469716e-06,0.000139391345406815,4.17409822934244e-18,0.014087581670203,0.0132143742236887,0.115516319922535,0.161339338909433
0.00984225913302876,0.0915354126910356,0.0151568118541075,8.97939926434908e-08,0.0032221329895363,4.17328945591341e-18,0.00377309833092049,0.0143367432713552,0.0444185002888905,0.0247011929356847
0.0084043323540828,0.0209442066729868,0.00444789911609823,0.000327431141408452,0.003480022539186,4.17328946100624e-18,0.00301288772800774,0.0108907996812848,0.013016984020606,0.00389465977209048
0.00381552245643362,0.00237534580827283,0.00326025051945713,0.00225647725677924,0.000798043344044682,4.17328946100642e-18,0.00414079105686862,0.0102754213405529,0.00896582579760674,0.00333168094658103
0.00156240715232963,0.000146278449237759,0.0024806940259773,0.00221484258768967,2.26692941596287e-05,4.17328946100642e-18,0.00133292857211327,0.0140498223875673,0.001136613611814,0.00317288176546669
0.00511762053759717,3.77172701748975e-06,0.0037575156906538,0.000632671790144308,5.5814274294792e-07,4.17328946100642e-18,0.00227497836593644,0.0115423828098148,3.06858481464608e-05,0.000486636171897564
0.00524909223184993,9.30347225000999e-08,0.00139499703351963,0.00376045676897769,0.0022782985125116,4.17328946100642e-18,0.00214576660191012,0.0141213212885421,7.87444097965034e-07,0.0030593531344628
0.00297624436405628,2.2660092839032e-09,0.00440960419198664,0.00227492867111254,9.92548915826276e-05,4.17328946100642e-18,0.00220704559786008,0.0142893527421106,1.99479101322046e-08,0.00307732682046868
0.00224053276921888,5.47320680387402e-11,0.0004344297602791,0.000165927456091468,0.00273163477541718,4.17328946100642e-18,0.00248187230909403,0.0167483267110672,0.00362973914334246,0.000170363095786503
0.00230262215618688,1.31981737382316e-12,0.0038521903042344,4.19144551998883e-06,0.00328418712985322,4.17328946100642e-18,1.52376647488226e-05,0.0139314880512263,0.00433695568500782,4.42586909923437e-06
0.00829225743066134,3.2049601485707e-14,0.000183842204728657,1.01128832440823e-07,0.00321444925236536,4.17328946100642e-18,3.71635493414169e-07,0.014378523152825,0.00322505660530456,0.00641792807140372
0.00645219357601325,7.89585258405419e-16,0.00403075680350029,0.00320803952412625,0.00223175089728633,4.17328946100642e-18,0.00227663270881036,0.0112920510035113,0.0111534983629093,0.0087259116055722
0.00448410673407885,1.96937347018299e-17,0.00356469939823352,0.000467097339469414,0.0033067791140483,4.17328946100642e-18,0.00432390151671974,0.0132048279015134,0.0166053197500334,0.0044802063499547
0.00351897222844634,3.98225017457965e-18,0.00390532622515812,1.3439790661466e-05,0.000308867164471051,4.17328946100642e-18,0.00232810195555146,0.0142321659736351,0.0100320781187125,0.00307985074996032
0.00311744916599535,4.17329788686629e-18,0.00246537611502664,3.24177820275998e-07,0.00227808325832084,4.17328946100642e-18,0.00226970852079568,0.0165380961926583,0.00745374381718498,0.00243617831381914
0.00389314949844036,4.17328946106762e-18,0.00221531150563217,0.00135397563205935,0.00377454449213944,4.17328946100642e-18,0.000273998022584677,0.0089800556236604,0.0106386751049721,0.00505596301515485
0.00716442212375976,0.01487540676357,0.00323259206643581,0.00183468950708613,0.0020636817326491,4.17328946100642e-18,0.0109078762967298,0.0116848402147637,0.0535236858737964,0.088366332289877
0.00546305801194272,0.111647381822645,0.00474162502585583,0.00197721980543058,0.00246111356426349,4.17328946100642e-18,0.0121386667058102,0.0138941705773041,0.140256642422774,0.138896301760659
0.0146724207535489,0.201948555770682,0.0105546821277891,0.00255719924707318,0.00313257432678715,4.17328946100642e-18,0.0214335017169183,0.00903016574719379,0.176746067489603,0.180354563529095
0.0253861456757213,0.19477599076597,0.0212938546666726,0.00317322535986669,0.00295269031663009,4.17328946100642e-18,0.0149555123123183,0.0158558374746884,0.107484889019249,0.172156363631664
0.0281708760884202,0.253526094631861,0.0136315024906096,0.000779030248297076,0.00315727546078806,4.17328946100642e-18,0.0107223699639158,0.0144979555881186,0.157980990627244,0.178500606913445
0.011543785985588,0.282007474819354,0.00932117227728929,2.23262098795998e-05,0.00240908414293806,4.17328946100642e-18,0.00963615396169664,0.0103636069389346,0.082936238998972,0.185439847532784
0.00958944001034428,0.193471537506451,0.0610251633768968,0.0109908883099323,0.00373084341392695,4.17328946100642e-18,0.0242296552796291,0.0245344329509755,0.0957579841677291,0.127531145795333
0.00515032893078662,0.0852900503208422,0.00767820156337624,0.00139391568389943,0.000222190867666545,0.00195409323029398,0.0148563143163248,0.0120207699653434,0.0557601659424785,0.0216525205237794
0.00299632507187034,0.0167600588984707,0.00324325443328752,0.00227726506428707,0.000327497387482652,0.00117524402491634,0.0186916189187359,0.0189200731930579,0.00865879498118832,0.00753152810947389
0.0149004042343992,0.00229173663488681,0.00872514346881141,6.77319197466388e-05,0.003146150977093,2.87189308324762e-05,0.0284531437210247,0.0235639140885475,0.00279551890090193,0.00257718543562974
0.0118567954310121,0.000379167915131446,0.00418596154154217,1.65437810205723e-06,0.000598248215193348,7.36484730516265e-07,0.0103971012044655,0.016576647159788,7.2876960488593e-05,0.00349812179683535
0.00242786765538097,1.06834224599146e-05,0.000962939094290586,3.98942923405995e-08,1.74434572673843e-05,1.90695064614805e-08,0.00711033658881388,0.0116945776798005,0.0115936729541623,0.00368342533940777
0.00626021804569711,2.61259641461443e-07,0.00315415047088191,9.63724046200267e-10,0.0022679307340649,4.94734352087933e-10,0.00747555622878377,0.0149654354121407,0.0120320545627249,0.00416802496466761
0.00161947460786434,6.50644943907163e-09,0.0015028110130923,2.35294150725439e-11,0.00196749398896833,1.27617513951264e-11,0.00552904838526173,0.0121592171703963,0.00240155353692391,0.000157631791246106
0.00855427669103091,1.6525592298168e-10,0.00288209932881359,0.00228000961650231,0.00117869086544241,3.25562324295271e-13,0.0028699874040314,0.012742569343653,6.54370833050493e-05,0.00227789326626132
0.0127776515692887,0.00135397569368089,0.000537553639736552,4.53760348288243e-05,0.00304331978036506,0.00280854796488346,0.00611035453255734,0.0219419180389205,0.00236502207511358,0.00713884992790856
0.00050480680373528,0.0018346894370176,0.00326172895287532,1.16351152185686e-06,0.00106572056085995,0.000274975948314565,0.00216899769462993,0.0145329507439851,0.0105191740563792,0.00410909492416459
0.005047950885423,3.41744980712922e-05,0.00318623792685652,3.01000805810014e-08,3.03457614895709e-05,7.22259628118476e-06,0.00250372736756671,0.0119658859942057,0.00887994244636621,0.00557852636184681
0.000481612095280349,8.85625396319037e-07,0.000671138768506514,0.00221464615786789,0.0037439855815662,1.82600286212759e-07,0.00370759617205006,0.017590579341388,0.0121518503228805,0.00273104195473185
0.00789612752431359,2.26919620914531e-08,1.92084123193067e-05,0.000543655131221516,0.00467269226810596,4.54886297903322e-09,0.0022819985147571,0.0119653452982246,0.0116165728337649,0.00328615117694047
0.00710298788993402,5.7378415153584e-10,0.00318242909869534,1.68977844523152e-05,0.00360958372471881,1.11721234761469e-10,0.00215683525119957,0.0117565723714793,0.0117218369064034,0.00336646311905672
0.00633888887577299,1.42962764858648e-11,0.00389730781926481,4.08622403157537e-07,0.00321886375158523,2.71239349139713e-12,0.000773618601207727,0.0148527001342542,0.0108920853123626,0.00034915198501962
0.000658900570838128,0.0560421231970983,0.00300059664135854,0.00227796190323813,0.00057904988219191,6.54243039739428e-14,0.00370100738670921,0.0126171923969348,0.0125502067869103,0.0156009488975841
0.0135604960616219,0.176199659908783,0.0317588026846744,0.000106709528383072,0.00326887624796972,1.57960797195401e-15,0.00861046261485765,0.0204662968669542,0.110209631310749,0.0559937644108675
0.0166897191996883,0.216448001187626,0.050648093019198,0.00401419194152382,0.00454890626851338,3.85474956552398e-17,0.0103467382290158,0.0191004799050841,0.11384692653049,0.106553562882473
0.0224936707486726,0.266615768507075,0.0574959922580917,0.0112599984987976,0.0148450526107083,0.00197717101245888,0.0164665758753238,0.0241513083798312,0.134954054111246,0.0885731425029351
0.0257479076240726,0.183028324047377,0.0521589149774703,0.00820681023061122,0.00907405067801669,0.00113603517036136,0.0163111419302383,0.0291284730051697,0.168441453630017,0.0343036187608241
0.0193256320020216,0.135568231260169,0.0469747026761638,0.00131693883384123,0.00272680778002624,2.68819354133104e-05,0.00906528384075485,0.0282042502059063,0.156931151363225,0.0226937347492354
0.0183251991302371,0.132795038350923,0.0489649423039997,3.48081058009842e-05,4.74366051561648e-05,6.5652184488679e-07,0.0145872134265415,0.0226453576836337,0.13488999709315,0.0191800523474657
0.0138094801541358,0.166744073408765,0.0469440731685815,0.00227767221485051,0.00318552424935464,1.63038259774577e-08,0.00933299238779861,0.0216366085394698,0.125095189565857,0.0164680921883368
0.00965880599103158,0.0881549575789381,0.035550565149654,0.000112337147245213,0.000641544619464283,0.00228006084170013,0.0202997446048155,0.0269725481522257,0.144151823334399,0.0152543246899964
0.0125575092141764,0.0891677896701801,0.0408049869037339,0.00224009802836242,0.00322331148655083,4.27260790162254e-05,0.171593478053552,0.0391387541425369,0.130787582118442,0.0539766990506539
0.0386757657178735,0.0662928721645331,0.157477074597533,0.00697144781167424,0.00220494287677407,0.00886679857300277,0.327688807386038,0.109733860629578,0.200401751189604,0.0595213893867019
0.0194015636812038,0.077438721871446,0.121819239198941,0.00175366396838418,0.000597228939600069,0.00219202764789667,0.182517544212209,0.0627062793263898,0.190109593055912,0.0305522327865549
0.00630838383471229,0.00579181318039018,0.0521993598596997,4.98060761033078e-05,0.00320326764581713,5.92707436850562e-05,0.0263757575795868,0.0164328501224548,0.115256715046906,0.0272898124687659
0.00810861056827732,0.000152396423894556,0.047373731298441,1.20147748376447e-06,0.00377804945767313,1.49869419659009e-06,0.0163338171024338,0.0168684195867747,0.0532378697643726,0.0291471534179902
0.00448566779640924,0.00221461961266299,0.00406841912607235,2.9212350290659e-08,0.00317192579915471,3.85194154401677e-08,0.021515037604408,0.0101625777619719,0.00997688770483887,0.0151290886432191
0.00403513556761162,0.000543713575196133,0.00335579476939224,0.00313079443249188,0.000660283468196729,9.98665028826594e-10,0.0171906890532563,0.0113830905627043,0.006914372254331,0.0097840416083735
0.00373636032037332,1.69000337213578e-05,0.00323624548152048,0.000100888296987452,0.00228163195394065,2.58889203850364e-11,0.0213794501883066,0.012384554319549,0.0124901924861884,0.0124117949369075
0.00791368254103231,4.08677614450728e-07,0.00330316954145081,2.70242550452717e-06,0.00135432735912636,6.66256889695414e-13,0.0172814379102665,0.014471872073746,0.0166344331860235,0.0175718806191978
0.0079720491989454,9.85217204706026e-09,0.0022478723922049,6.76042808994453e-08,0.00287797786508713,0.00206131902905067,0.020559072178497,0.0188257563869879,0.0181484871793531,0.0275413810020326
0.0039493425851721,2.38851543490089e-10,0.00322585672875807,1.66676362609494e-09,0.00227984184192294,0.000975061623655201,0.0112090733304298,0.0156412173553997,0.0187733569151472,0.0217374478612563
0.00588503177773025,5.87339904027337e-12,0.0178127935030486,4.0581946614882e-11,0.000174394120396021,2.68785627462781e-05,0.00958988341076553,0.0101085499118517,0.0331888847636103,0.0253574831950635
0.0131243461712985,0.00445939589085762,0.0299989650241421,0.0123308087260689,0.00227777356015769,6.50930765676965e-07,0.0211071589199976,0.016800008365108,0.102696592147142,0.0408210431456672
0.00501072282134238,0.00787489959793475,0.0913094912081074,0.0252823897974787,0.00380800634815137,1.56910334693725e-08,0.00667265497265009,0.0232560842354297,0.136534617137839,0.0225321870951002
0.0153039035246868,0.142453040277089,0.081496557174212,0.0374412239854981,0.00616034227593154,3.79951622614575e-10,0.0252206238944528,0.0242045083554664,0.128368698899937,0.0554354569579776
0.0201496714112001,0.175036458394864,0.0769219328729599,0.0549033100157515,0.0100901836712498,9.32291043920064e-12,0.0460033183213818,0.0522676311115886,0.14482298725144,0.0563283936707203
0.0216373505636436,0.106897269027622,0.0989747255875374,0.0474040740374942,0.0091487592782889,2.33169577305849e-13,0.0549804775378998,0.034293940842319,0.144093954326716,0.0422380365981589
0.0166201225659206,0.152265892851663,0.10442595862106,0.0342811011117261,0.00452919011858597,0.00221464617642267,0.0218129631341858,0.0225398972612834,0.143096609116497,0.0245125525494498
0.0221813231951586,0.0233464204127658,0.124127849869748,0.0215177915655699,0.00393705955922112,0.000543682799639787,0.0317953204260253,0.0273140027078385,0.142054888260156,0.0191271945493232
0.0238893214059087,0.0143114516798902,0.103657072873519,0.0403817474788192,0.00100005984287566,0.00227464646288804,0.0291802927951899,0.0184040800081408,0.130446989487484,0.0248451774770672
0.0213487797141168,0.0187714190337999,0.0576912489589405,0.0424230305000421,3.0092956089437e-05,0.000165389698647658,0.0237445757131478,0.0169156734768573,0.0867724780017048,0.0192875746883169
0.0196028498551155,0.00528484246797248,0.089317986856571,0.058877359197487,0.00301325642614388,0.00227815797027782,0.056264521972742,0.0277600613357339,0.0920986380769254,0.0566850624215903
0.0185018716055441,0.00014239499017937,0.078936395219358,0.032887757740404,0.00252267669295495,0.00545627872824263,0.156631893752027,0.0630834409484418,0.104697028404868,0.0412986348451141
0.0209101045530785,3.67279951832562e-06,0.0629099975828361,0.0423852829765459,0.000182872472328471,0.0110968538531403,0.207746942876544,0.052685775695027,0.0254755147592086,0.0275136808538827
0.0137419934070502,9.53029281041953e-08,0.0366726497378296,0.0215242617508468,4.56212373127443e-06,0.000482378242749839,0.0377844422182035,0.0238847352157679,0.0165317574070409,0.0135367200659098
0.0140554837353605,2.46680159841582e-09,0.0341471701006572,0.025156969480453,0.00320187913499064,1.25142454080593e-05,0.0236609335819762,0.024774297744352,0.0197137978057264,0.0124869312693104
0.0147788865666193,6.32803394871775e-11,0.0338353565657831,0.0171801091889739,0.000289436787023784,3.21226357001155e-07,0.0232718709014041,0.0239382219792405,0.0285458960546107,0.00780452787042151
0.00665950314652911,1.60242180581365e-12,0.0315456772933958,0.00247947800902597,0.0030173785779613,8.14068552669512e-09,0.0138927995747715,0.0126109581030163,0.0815606145350588,0.0132158254415438
0.00605303168748386,3.99857663249395e-14,0.0450788787177688,0.000251537262522186,0.00354694546111194,0.00227520198296692,0.0209479390788981,0.0279282847422294,0.0870954636332205,0.0110151806979396
0.0127025498205633,9.84018972238101e-16,0.0366306048196825,6.59689543326154e-06,0.00299664146262563,0.000154738513927306,0.0171809050214232,0.0236550845193226,0.0591268699915611,0.00919957081298464
0.0135441685222491,2.43088043928644e-17,0.0436331223669386,0.00219991339546317,0.00336640977346213,4.01228424220423e-06,0.0198644248471653,0.0168483667353443,0.0742068567644754,0.0137623124615469
0.00870240302379282,4.19455617220636e-18,0.00860907698103693,0.000600502052680561,0.00238730534703523,9.95704909329131e-08,0.0101161346618327,0.0232232281932088,0.0359437848795154,0.0152764164062516
0.0123687431316508,4.17329107710046e-18,0.00316652649496169,1.68977635104822e-05,0.00316846191436131,2.4372897150642e-09,0.00601057874352497,0.0130774512943007,0.0195245261730405,0.0100877319080045
0.0124377807586731,4.17328946103801e-18,0.00740356971285882,0.000641771479651823,0.00233559831246418,5.90381940053234e-11,0.00477819671574887,0.0160390428813986,0.0389071759562875,0.0170782444340432
0.0117590495148945,0.0398329511432257,0.0357919848615032,0.0210745082901917,0.000186112853869759,1.42325339707619e-12,0.00377264894106722,0.0300392590579758,0.0798002996281043,0.0123457210051771
0.0170798005660511,0.148301592574468,0.0711306484540536,0.0361968365776036,0.00195408299550756,3.44206744464776e-14,0.00912679286325257,0.0196379725940037,0.147591928093682,0.0136634588749858
0.0148747708275398,0.152218063248119,0.0547162579171465,0.0249938297649585,0.00720740234453609,8.41962374088052e-16,0.0110153241852531,0.0254727502688744,0.136150359270634,0.016526488590436
0.014555337703895,0.123621818333132,0.073095092044305,0.0344606816478913,0.0040253983956344,2.17501196989389e-17,0.0148921911784861,0.0179301356773553,0.1068731430315,0.0209505066245805
0.0129185510729543,0.0342029293225671,0.0579699334660817,0.0302518119004478,0.00235307730712125,3.96664436246567e-18,0.0110055529076835,0.0193422563569207,0.0825004497344548,0.0183645885409471
0.0192576044244905,0.0245661646704485,0.0887528163988884,0.0408256171274877,0.000330517120925405,4.17323395135191e-18,0.0137660895255764,0.0197792593575556,0.105935507722693,0.0174452964025103
0.0128346896588185,0.00816756917613772,0.0640558570417721,0.0563154117229133,0.00222401526399569,0.00135397569362659,0.00990957777301924,0.0217565223289781,0.0946378291666698,0.0143987265539667
0.0103873882423442,0.000339486074223669,0.048622502332438,0.0370776718202171,0.00420227190277702,0.0018346894370565,0.0108891934270387,0.0123323256118608,0.0377893315206997,0.016252363637244
0.0129506465948194,8.20075468068783e-06,0.0550422598278462,0.0525016963837787,0.00320492166815779,3.41744980684818e-05,0.00444464253964243,0.0304596038043438,0.050498737627305,0.0154964145025877
0.0126453197695163,0.00932179701000248,0.049852280656798,0.0348289817340059,0.00414948302923034,8.85625396246775e-07,0.0194902923700317,0.0284169015390705,0.0772107534762155,0.0173301086158753
0.0166480986433735,0.000420489403354222,0.0950709806625828,0.0554621312397888,0.00140007731643441,2.26919620897995e-08,0.0173160122386453,0.0164578058251303,0.126570675953758,0.0162919345490971
0.0196657222315982,1.09445353524682e-05,0.0792982688258086,0.0337948064044154,0.00318575467955233,5.73784151245501e-10,0.0847627705514892,0.0507628508060564,0.0868653291220558,0.0213411206116358
0.0175780044363881,2.81362287052469e-07,0.0971605176207803,0.0500825784110002,0.0036801313899731,1.42962759764449e-11,0.139220243136569,0.038843914524693,0.0911408367870895,0.0312138209246951
0.00690893293196926,7.14441369292643e-09,0.0450062763153278,0.0430056192061431,0.0033110133844275,3.51172155917391e-13,0.051282366038826,0.0207831376088289,0.0345834283881498,0.0202804116659287
0.00717847062786482,1.78799657694494e-10,0.00378640992446274,0.0028121917461858,0.00258381138959971,8.52691886809738e-15,0.036443581767458,0.0160037773028807,0.0159482766941039,0.00925485223476893
0.0048792288203369,4.40992634182325e-12,0.0031517206780179,0.00228272239467142,0.00233320383282798,2.05358331201052e-16,0.0265762158153481,0.0245503880190333,0.0122220835223334,0.0129753167776059
0.00472870622606414,1.07403891733148e-13,0.00444420711918752,6.13816885497566e-05,0.00228217566139104,5.61405206607572e-18,0.0226451890494476,0.0185259617519977,0.0112500021760831,0.0136757133510445
0.00402777660442165,2.59467865213692e-15,0.00443523939042498,0.00214306565533034,0.00227782658799959,4.23548478717261e-18,0.0317424829591784,0.0211352513817137,0.0109943486666422,0.0125002765218834
0.00899054813605317,6.25319913441139e-17,0.00359502909548553,0.000779317333577245,0.00227695771314127,4.17329010293983e-18,0.0116447122670362,0.0217590212250701,0.00786510510218854,0.010185289139673
0.0068937381158771,4.39295541692516e-18,0.00228886046280134,0.00227349909298611,0.00373855749153644,4.17328946099481e-18,0.0224810649777325,0.0186176480361724,0.00716436075591105,0.00929817119251179
0.0025567855813427,4.17328206488972e-18,0.00097819052786089,0.00233452087429071,0.00346827102889936,4.17328946100642e-18,0.0118312820046157,0.0189531203913827,0.0197518869613905,0.0180433302828255
0.00801799255403094,4.17328946089374e-18,0.0118144593638985,0.0215265518994409,0.00295030512060244,4.17328946100642e-18,0.0110187708200476,0.0315307528786746,0.0331771868503086,0.009642165534794
0.00973529904569932,4.17328946100642e-18,0.0401010187018656,0.0353789971233576,0.00359827968651306,4.17328946100642e-18,0.010488558870913,0.0281025401946354,0.0754016905846508,0.0110544565200543
0.0101364317239809,4.17328946100642e-18,0.0432478390902092,0.0341224852355121,0.0046278479127514,4.17328946100642e-18,0.00953391608904469,0.0228049359241448,0.0700218402471953,0.0176418199690293
0.0142568474938478,4.17328946100642e-18,0.0417237519192395,0.0279819522233318,0.00453476037621548,4.17328946100642e-18,0.00980708953295278,0.0260665728302852,0.0612588049955551,0.0169596536043047
0.0116012732792789,0.00622791512559486,0.0341046499980937,0.037011763116645,0.00621431787156603,0.00219991367983224,0.0254596050724461,0.0235764009366865,0.0680996765718864,0.0304169048412758
0.0158382390292443,0.00216339685628226,0.0548208939479264,0.0452266264450641,0.00230234794235507,0.000600498366838108,0.0138352854335896,0.0258151357605955,0.0965034329907696,0.0158003150095768
0.0154119696498621,0.0266206965581696,0.0669477733131979,0.0385629540931048,0.00221578653596285,1.68977043455653e-05,0.0330482674957755,0.0221893954125059,0.116360274336424,0.0227003480767009
0.0108741094171322,0.00904945506526975,0.0690141833945717,0.0316135128841162,0.00235168360197288,4.13204329977094e-07,0.0297895383613783,0.0268245634633325,0.0841371939173905,0.0225544028320309
0.0204724842926209,0.000242347696729676,0.0978725428061909,0.0534296374825889,0.0022861714181427,0.0128481586292939,0.289801091661116,0.0765918573149373,0.113697308647732,0.0395320283595558
0.00837242276394682,5.88668237975823e-06,0.100300616680079,0.0430229212040591,0.0029919143095504,0.00311753671941659,0.213216633758732,0.0502263949107718,0.0946661084998346,0.0173827895162246
0.0108432990009193,1.4521911565221e-07,0.101982775497506,0.0197698792878672,0.00409309362992098,0.000122939242386025,0.0351644786538424,0.0169643444505913,0.10965955154327,0.0146510624659316
0.00893021934649609,3.65408083908645e-09,0.00967611461226218,0.00632570319492495,0.00208109511581809,3.14479332925486e-06,0.020836751460018,0.017733892711567,0.0250854444977992,0.0147716594108709
0.00666802590790668,9.36046294203398e-11,0.00317226253378243,0.000328420009398027,0.00246901544185837,8.13630207865044e-08,0.0134770855381613,0.0196524204605095,0.00606401830493651,0.00677706527319188
0.00669633265060594,2.42379090525405e-12,0.000136543992731294,8.16112395487585e-06,1.48466889032427e-05,2.11128892239136e-09,0.0170817074070759,0.0149980867077973,0.000186175927920133,0.00856476708189904
0.00907367754399075,6.28818941771247e-14,3.38814524954844e-06,1.97086451532867e-07,0.00319082989594163,5.45136881798658e-11,0.0166164538023595,0.0178730996416903,4.53107254320432e-06,0.0117619428216818
0.0105920878636959,1.62223646536696e-15,0.00308367301820968,4.75296762492821e-09,0.00227748508484839,1.39270113573626e-12,0.0208201852447668,0.01611187846677,0.00876649653987061,0.015955682868318
0.00697900497938473,4.15704022552835e-17,0.00386670875579776,1.15461216870099e-10,0.00379617515224572,3.50931871970923e-14,0.0202596376371632,0.0237673146102192,0.018356639368974,0.0127811294570697
0.00530039940424596,4.58676988389316e-18,0.00408748154306976,2.84871448550765e-12,0.00114366311497599,8.70910809403977e-16,0.0181817676448951,0.0190760228012175,0.0232006004283445,0.0134633253400801
0.00316611897054789,4.17329125645169e-18,0.000421863998315265,7.16919674120805e-14,0.00317850852186158,2.11544921717217e-17,0.0268593072446976,0.0219954731395875,0.0141188231536516,0.0129912965101035
0.00584160788960182,4.17328946100233e-18,0.00313085827844926,1.83793861354922e-15,0.00370401318937476,4.16600928287511e-18,0.0239105361009142,0.0205695543289428,0.0174820550187288,0.0144813842096388
0.0142827518203273,4.17328946100642e-18,0.026652807242826,4.74247995073015e-17,0.000835249415159334,4.17328939991709e-18,0.0202825655327864,0.0262100144139644,0.0154377161741395,0.0137666822256121
0.00388711432453319,4.17328946100642e-18,0.0248854503618513,0.0129381850772497,0.00319523465028099,4.1732894610124e-18,0.0155973025090717,0.0204287031093997,0.0295153376506686,0.012357024535994
0.0162429353138906,0.0136370534595022,0.0616898460526243,0.0267882474651396,0.00316699227801877,4.17328946100642e-18,0.0233770575384611,0.0238547311218031,0.107993302275086,0.0157058032939058
0.0137224113372667,0.134488364093293,0.0824821085433191,0.0679472014194113,0.0022935145611261,4.17328946100642e-18,0.0572156689624327,0.029002684093347,0.136132496331322,0.0296143578732379
0.0207914917262522,0.176913215783003,0.0650096426085295,0.0756482868436869,0.00803915327557763,4.17328946100642e-18,0.0620991531396562,0.0473721439896163,0.178138898774283,0.028339155263826
0.026969588077271,0.0725992330376229,0.101525303469323,0.0769334115182334,0.0113764711005874,4.17328946100642e-18,0.061148905092775,0.032974969957998,0.140260577394234,0.0203041536062157
0.0231529305927019,0.0232021778952498,0.106864323045219,0.0506213347476016,0.00640082133123014,0.000327431126732593,0.0335524168346356,0.0419081263796779,0.132187408309712,0.0157569518589291
0.0183988007759869,0.00459680471910562,0.0825011169521929,0.0576739785258556,0.000357046517386039,0.00225647726089221,0.0343175121959817,0.0229187310366693,0.115463854877018,0.0189866196997649
0.0192006987072854,7.40071846321821e-05,0.0746860228920213,0.0579444958999913,0.00429858383582394,4.00300914221203e-05,0.0458444011631238,0.0243680237554215,0.0991305484647149,0.0371153773315055
0.0114294366791407,1.9181627362986e-06,0.082300466310759,0.0478183170206871,0.00353060316219347,1.00500355229389e-06,0.0396414944176032,0.0220061521422497,0.112767864922963,0.0190560854287931
0.0191883812645322,0.0105126025661533,0.115715757436791,0.0461302461663748,0.00378469300107527,2.48065615072495e-08,0.0567140308079832,0.0255686797037741,0.177939141984469,0.0374797986233833
0.0120114740825639,0.000908899507764768,0.055204247059726,0.029847164908405,0.00326292284900982,0.00195409322859562,0.0268216217930897,0.0169333391801335,0.0731073597252639,0.0171874160707683
0.0144511256181868,2.56543906348124e-05,0.0528065626331087,0.0210935372497726,0.0031958072086111,0.00117524403063138,0.0232905503727104,0.0168812712308863,0.027907425750485,0.0141390991216536
0.0132148613574719,6.4513179689242e-07,0.0444063919505833,0.0261709036892876,0.000402355737598039,2.87189305928914e-05,0.0164323213122814,0.0221019977624876,0.0447100540488499,0.0145872718736041
0.00995393604000099,1.65184765592073e-08,0.0444329149233828,0.0248201852307547,0.00429015081349942,7.36484724749158e-07,0.0143024729100951,0.0187037273574632,0.0672943167592676,0.0127836192188799
0.00907886085492131,4.27644428892943e-10,0.0543747059399375,0.0238158767101872,0.00328161719642332,1.90695063158469e-08,0.0165371503694643,0.0162282666030606,0.0577783821270851,0.0141407330450039
0.0145627496170221,1.10952278296025e-11,0.0952986880847885,0.0365681334369068,0.00331023135876238,4.94734348514457e-10,0.0171875133662196,0.0272946621483894,0.11825521548079,0.0164690999876743
0.00798430924324059,2.86258695153121e-13,0.0863828762374264,0.0375944451787066,0.002922092547007,0.00218827883482982,0.0144660579537343,0.0153639849043752,0.108119398264642,0.0154706171453202
0.0140609046578955,7.30532989374594e-15,0.0564535688959228,0.0255099829432826,0.00310177215676073,6.49452504621947e-05,0.00302369502594205,0.0178522813581513,0.0939469730746648,0.0122294753720145
0.0107613481527868,1.83516081632813e-16,0.072750952249131,0.0450668210714757,0.00223654983816235,1.58542461288795e-06,0.00567301922284146,0.019599084182486,0.0590392797114592,0.0131250986463763
0.00950148913780934,5.50230223170358e-18,0.0608414199309276,0.0320845737465323,0.00413177240389122,3.82262623066803e-08,0.00513585796662968,0.0252820562354282,0.0618500774189969,0.0163437732563932
0.0152771607536024,3.32811540392736e-20,0.0602032376037703,0.0654116671064716,0.00387402021087365,9.23806872524263e-10,0.00293412005155506,0.0240126964078984,0.115691134135993,0.00995287304550188
0.00881358580376378,0.00642588933715739,0.0764741052703492,0.0834540743189566,0.00328146778977075,2.2576267947167e-11,0.00985644057334548,0.0119332937791583,0.125012715409018,0.0186389676845864
0.0206671411850677,0.090891275590523,0.110410299511078,0.0606954565273716,0.00215690386869391,5.61804915576568e-13,0.0119937912894348,0.0429614827227245,0.129062163474849,0.0337875992691702
0.0199637966342355,0.020083370959245,0.078297873425795,0.0491809752040016,0.00388867589595977,1.42590829798433e-14,0.0264833768115842,0.0447307784758354,0.125410107202757,0.0192301440013828
0.0167230715604646,0.00585348070607625,0.0745617593677781,0.0489687538316297,0.00100919451154095,3.67917071979569e-16,0.0165849805319547,0.0284070430465778,0.0905927159875225,0.024506572192561
0.0214255463674375,0.00592234755046808,0.0523085397825015,0.0479344331004839,0.00415009939236513,0.00227933799982932,0.020791106102396,0.042525178900843,0.0681406100582276,0.0243267772609614
0.0179353703540383,0.000713307593012647,0.0727255818335484,0.0350138980570854,0.00318235548658124,7.15478218048693e-05,0.0172769782297895,0.0326891927317992,0.0614401288097077,0.0140313879506605
0.021282042360668,0.00212597226733723,0.0687770111565728,0.0598361057551015,0.00389862894637576,1.83848148014808e-06,0.0229259466184881,0.0328695156520677,0.0578022088752849,0.0101174060289688
0.0116389629459177,0.000522291563675748,0.0825197711675404,0.0438111352441042,0.00241133521492577,0.00228005641458388,0.0344971128567881,0.0239711375075826,0.0616472915445205,0.0177844415556128
0.00888434540428023,1.53523899834899e-05,0.0425590374949837,0.0332813761665553,0.00229873660060282,4.27026203602042e-05,0.0137542496869031,0.0166137151860214,0.0234766393683616,0.0147627491066704
0.00772826438528498,3.8323074238152e-07,0.0449925655867378,0.0218255560993864,0.00451188098852608,1.03687683215042e-06,0.0119025908336606,0.0333070373511296,0.0139855832991033,0.00911339557249476
0.0188059913669393,0.00221464617642279,0.0320434765411403,0.0202928758119588,0.00359944183213791,2.49957496590918e-08,0.01201524206423,0.0315868088889263,0.0102466193226981,0.0166573422837337
0.0130305107248637,0.000543682606958151,0.0773534806889579,0.00514564197403178,0.00234788809843794,6.04620616871146e-10,0.0514706347934214,0.0194194396410631,0.0311683039082264,0.0146528578157923
0.00862225503562711,1.59799203532837e-05,0.101703125846856,0.00268649767622149,0.00227000626281435,1.48049286347868e-11,0.054058784939284,0.021355076174984,0.0387097441878919,0.0184823847607926
0.00451134273313473,3.98884429224702e-07,0.0041637662379127,0.000137462902463546,0.000239210033105579,3.69343583424307e-13,0.013061447700407,0.0190797953596983,0.00246438406937122,0.00522302347110616
0.00920888805716083,0.00227663270510409,0.00320663757518912,3.50547956857524e-06,0.00299128264894256,9.39524770159335e-15,0.00622843599258275,0.0200327173555003,0.0154276840947954,0.0101960513526362
0.00457775018671387,0.000132038807090191,0.00232321329469144,0.00197717035573252,0.003053352796813,2.4243156389619e-16,0.00559565620687033,0.0224663900682181,0.017508907827264,0.0153820358456438
0.0086361335118379,3.49003719001952e-06,0.000116790716928729,0.00254532352319612,0.00390252707430268,6.24981184693827e-18,0.00969896474623454,0.0247104533965415,0.0211742325374236,0.0164082571722255
0.00761613663493766,8.97939631288615e-08,0.00227941856571218,0.00224141567914073,0.00228669175167174,4.17271805962752e-18,0.0122580164909033,0.0230819821515233,0.0241550369710763,0.0155445779300918
0.0108137745764709,2.28246667902979e-09,0.00320600338878176,0.00233663558052168,0.00317692667983027,4.17328957519717e-18,0.0241828653315146,0.0210182143037718,0.0294930859996822,0.0398384234770715
0.0122350613013751,5.71873432645528e-11,0.0504758058254913,0.0295674898035511,0.00388199185212968,4.17328946102407e-18,0.0615960041069936,0.0283318162373012,0.0739005447306673,0.0778745526851107
0.0062699692045153,1.41199049281466e-12,0.0386293752190394,0.033455040743046,0.00285469724013258,4.17328946100642e-18,0.01195823962075,0.0229617516065532,0.0374254083359016,0.0290038237952755
0.00916903093556664,3.44179661156113e-14,0.0632853397945824,0.0385710951480869,0.000490340745718409,4.17328946100642e-18,0.010383791002135,0.0174745238611497,0.0417864352902767,0.021417274817027
0.0152093521441996,0.0523661710192371,0.0920614316261967,0.0518433696669868,0.00581732475664157,4.17328946100642e-18,0.0233811880010273,0.0412690748391529,0.0506343011333309,0.0254025047135314
0.0303167693582214,0.0496465565027996,0.0460150229234389,0.0490434907413457,0.0202448842453847,0.00385803716752546,0.0582615527598073,0.0389879353859695,0.0850961091033575,0.044753983085599
0.0477796693290276,0.0546244642562151,0.068292710719698,0.0375999341786356,0.0360162341116006,0.000849136105811329,0.0591660775264036,0.0571900940091262,0.120601487425717,0.0296755194176362
0.0240128976852068,0.00815116110604463,0.0722596055941414,0.0535785567752137,0.00541674727885179,2.37379837918991e-05,0.0168657112839363,0.0406616399899571,0.100508505936332,0.0151693620893367
0.0220816845386971,0.00889409494780823,0.0918881448001059,0.050117035490055,0.00487705963800953,6.01672961652202e-07,0.0205162372364754,0.0395041955000411,0.0822788956013527,0.0190100967090204
0.0261504996712166,0.00477361607435553,0.043508567472351,0.0327398988771161,0.00408847932656575,1.50275767593419e-08,0.0136523514188913,0.0374869067590487,0.0791094324639001,0.00856124806326591
0.0209196638256979,0.000137096642852868,0.055762400245919,0.03743591624306,0.00132268026705432,3.69950993052422e-10,0.0462371772483246,0.0364286201828228,0.0570504334710181,0.0312814802925572
0.0169435271309049,0.00224865942953556,0.0530706036622306,0.0383232024363856,0.00228080805764421,8.99727140267383e-12,0.0461857780446207,0.0394903574994543,0.0466720656909719,0.0230588787929698
0.012909578166036,0.0022904141859327,0.0534079365520239,0.0526584795233279,6.79087924067654e-05,2.17164490516177e-13,0.0567517632195394,0.0220661789216573,0.0197690668656218,0.0424154506315703
0.0219662496327991,9.70017178213097e-05,0.0897944191308432,0.0328771775182508,1.66369211791855e-06,5.23962112069226e-15,0.0658904675770893,0.0332244163319743,0.0196835900551461,0.0239791020927969
0.00817533797050597,2.49180182433937e-06,0.0603647036360832,0.0315115449289494,0.00311957399958974,1.2776645579027e-16,0.0500082460597691,0.0323325595468462,0.0118800448779402,0.0340294698257737
0.0125044678912973,6.21897687280146e-08,0.0452796691562962,0.0312275841088947,0.00335275278022558,3.5703122454188e-18,0.0275513459391157,0.0250246865652104,0.00980708098898272,0.0180517337543638
0.00998133704890368,1.52995641695363e-09,0.0366743791944938,0.0312835686545016,0.000390997938312082,5.56956407994688e-21,0.0383415674486205,0.0217866071791774,0.011192895133348,0.0139726604016318
0.0101791091357735,3.7189915791726e-11,0.0144759897568043,0.0121066400875067,0.00361366867108761,0.00224919293128899,0.0283342281457451,0.0237310359166765,0.000796072258140465,0.014510215641149
0.0111267146053058,8.97453168901933e-13,0.0030494689712636,0.000134387457666694,0.00392696437931052,0.000376194838253313,0.0277060791683695,0.0207494292531752,2.14371134687274e-05,0.0159449886019427
0.0129256673763838,2.16550455416819e-14,0.00241224886049352,5.13696263925226e-07,0.00368670606788726,0.00226635951561063,0.0240884676183921,0.0289614920039531,5.56161955249199e-07,0.0137753956566377
0.0065647248800865,5.27011882102276e-16,0.00234757499036588,1.3256041564574e-08,0.00290043069767953,0.00222779744594582,0.0195132444693934,0.0256729304034829,1.43446876451642e-08,0.00847629576945841
0.00399101521896851,0.00224919293128899,0.0022825895509319,3.40563691490478e-10,0.00289402949483267,0.000549900931092589,0.0204479901685568,0.0190587035032585,3.65885745053908e-10,0.00675889887643282
0.00991383485407876,0.000376194838253312,0.0022746612081109,8.64032634313747e-12,0.00231290900883128,1.7052366874546e-05,0.012142189736431,0.0176303168378823,0.00535398082938891,0.0112848499391187
0.00864270450407785,1.06172606736753e-05,0.00016482273563646,2.160406842283e-13,0.00357174107788991,0.00195409244279022,0.00759321887136976,0.0223585445061989,0.0105627007463224,0.0182585664208575
0.00755626468994862,2.56501158975192e-07,0.00373646557737966,5.32361856865087e-15,0.00280830772693196,0.00117524701613412,0.00876092258077084,0.0239384225464454,0.00877764002939995,0.0247034570399436
0.0153482781938985,6.18491058686288e-09,0.0273286406887827,0.017744893436846,0.00227430743037918,2.87187302266886e-05,0.0048732185761468,0.0214082630079155,0.0285067662527021,0.0180486323664354
0.0236450981072391,0.101952494949943,0.0631606420253926,0.04678003070691,0.00632866535524671,7.36479783633923e-07,0.120048982000295,0.0582578854613923,0.0712231042083113,0.0419022248025424
0.0289173097528283,0.0980331695479031,0.0674490096386988,0.0567100808049379,0.0317121872663919,0.00432645859128697,0.0961110575838584,0.0820067184667228,0.124238003732819,0.0481811777974256
0.0245780067300508,0.0191567471189527,0.0515890856670915,0.0254096038490905,0.0123827329670198,0.000381632551771054,0.0334310848574372,0.0410283724261481,0.0544671645258146,0.0234508588954876
0.0123922822138358,0.00511738218251174,0.0558997475809936,0.0307209563620014,0.00405794794423298,9.4515146051022e-06,0.0300981615679249,0.0489894198985785,0.0797760205449983,0.0182776532991331
0.0194014499847577,0.000161784684222876,0.0528599761100306,0.036323689716445,0.000285376198605813,2.33588651562725e-07,0.0153012211214707,0.0440909102990135,0.076798046743933,0.0131617827222308
0.0229976882526537,4.04077069009495e-06,0.0461374945802027,0.0517320948333015,0.00362704744091246,0.00227663289758346,0.0156568775361832,0.0280558592785967,0.0827009982850842,0.0156957595692134
0.0173936974441761,1.02680223147399e-07,0.0342102813229077,0.0212500429928215,0.00073587216156944,0.000132039011766586,0.012743759801806,0.0251426580651675,0.00855716655127492,0.0137821693599806
0.00973211378650221,2.64778827632764e-09,0.054710073495134,0.0280743996406829,0.00322582141862621,3.49004236884712e-06,0.104782264132455,0.0675752109403461,0.0103049447802985,0.103420836766534
0.0107466663781054,6.87031213963661e-11,0.0636549272404148,0.0362512648636671,0.00226656349417833,8.97940909779592e-08,0.0609794900444357,0.0432514821952406,0.000719295088363976,0.0343522087666381
0.0110749756280056,1.77854047061435e-12,0.0115521206353366,0.00834491733195558,0.0027987954827085,2.28246974592737e-09,0.0317898104108623,0.0243330539862321,1.87004110219934e-05,0.0129997785390031
0.0136581044017728,4.56367008409364e-14,0.000234651888775093,0.000214497499140595,0.00371017023820036,5.71874147236298e-11,0.0287557928715756,0.0260421956482744,4.73834694963826e-07,0.00951129519406429
0.0125900058786931,1.15535306542585e-15,0.00227783251175111,0.00224863996960713,0.00119225242393351,1.41199253157261e-12,0.0281162055087164,0.0194466803095789,1.18315097388951e-08,0.0123432696865613
0.0118544957715107,2.94495706382781e-17,0.00322646912415446,0.000379453637811108,3.53389872696097e-05,3.44179753537989e-14,0.0162863618329634,0.0222689448035086,2.91198844313954e-10,0.0109577958414621
0.00930944873192075,0.00227889510237167,0.00302087983623937,1.06223468774117e-05,0.00394089986759057,8.31589014120666e-16,0.0247768531158263,0.0202043717988504,7.08071103459127e-12,0.0140993956184407
0.00833985895214175,8.44773120548277e-05,0.000113027332839598,0.00227441057468991,0.00224057077572917,2.00218466789404e-17,0.0199551965212747,0.0221910193759243,1.70892296915696e-13,0.00932955095386051
0.0281613936175273,2.20985345638821e-06,0.00226423301488217,0.00227092147770059,0.00317577492446235,4.05581365051966e-18,0.00627049549177604,0.01793521675502,4.12343057506788e-15,0.0137991271406226
0.00866874063565944,5.67818129519586e-08,0.00265936049256267,0.00023800452710018,0.0024009414004895,0.00330376244644476,0.00636851032791844,0.0155873563532987,1.00216075157716e-16,0.00922232257773293
0.00506766096315106,1.44085197113271e-09,0.00508600004928129,6.35464170911918e-06,0.0022753575150398,0.000114637818337366,0.00687176662211914,0.0228279781852376,0.00227797049545618,0.00803491192768714
0.00675525229604387,3.6033553720421e-11,0.00363515393981178,1.58179782007058e-07,0.00312961534847964,0.00226429723094614,0.00824002331840212,0.0285255033479099,0.00499744679134138,0.0105651881709261
0.0129881119201602,8.88136936924531e-13,0.00240270199561918,3.88213497608611e-09,0.00241174641057272,0.000271230544416841,0.0114149929628337,0.0282442056749033,0.0139308308620726,0.0145477450525925
0.0089311953453484,2.16188739547686e-14,0.0102576040906846,0.00227663298020959,9.87656003190797e-05,7.26310310221877e-06,0.0104174690091933,0.0236994051702736,0.0263995364971077,0.0124530286690795
0.0181237831405319,5.21384226349496e-16,0.0225112084813669,0.000132038867330284,0.00394504072733409,1.86991432967488e-07,0.013583194305797,0.0361906652417971,0.0619238097976831,0.0156678011527971
0.0193850477542823,0.0126401292903012,0.0361305764197757,0.00575864219742608,0.00894610641864079,4.85025704197309e-09,0.0152278251812731,0.0434631919711009,0.0677359777824472,0.0157893792170021
0.0176584949612068,0.00191461376136007,0.0264769704621477,0.00125396826264356,0.00539345096106294,1.25661333303143e-10,0.0186363578844785,0.0412633755428528,0.0635885651504533,0.0169648112146337
0.0209319727063972,0.00609201860315692,0.0428857927457338,4.25387188155226e-05,0.00474262535946135,3.22956197436152e-12,0.0142003031581536,0.0309644241862931,0.0782055103163707,0.0200771828536552
0.0154620459201509,0.00034311663666261,0.0230700596409078,1.02680076890792e-06,0.00226144972624838,8.19737376322943e-14,0.0104228371552226,0.0258155184685841,0.0873533053239917,0.01026256910437
0.0191290711482442,1.00247535407645e-05,0.0321165268408178,2.47734050071417e-08,0.000380229674234662,2.05084227816624e-15,0.0109928448084474,0.0325189589558989,0.0880518105953784,0.0117277785525519
0.0176976630468075,0.00227999266627788,0.00774196475130839,0.00226635912061009,0.00213996237167929,5.11675829677577e-17,0.0120828207109852,0.0282882376376997,0.0244018953444586,0.013392809937488
0.0186730646731599,0.0422815704050455,0.00323567336112421,0.000253132328357814,0.000787858204798874,4.10232384330027e-18,0.0748417949874579,0.0256703989913592,0.0135964457622323,0.0774221272149769
0.0258251052723494,0.0260004490945599,0.0409923739221363,0.0138636395203767,0.00224915499690213,0.00704247069366283,0.201640684239389,0.0535632058980612,0.036386183555168,0.0618056393751529
0.0152797658378516,0.000757291852383901,0.029782297656773,0.00240382245090017,0.000376786910189887,0.00285402836430172,0.211117349501124,0.0415934926060988,0.0135771287097005,0.0422564372522725
0.00976006501267497,1.95031199393824e-05,0.00586301471148196,0.000740819118962768,0.0038057048908392,0.00225764286217714,0.0425062161625386,0.0203972579603957,0.00701912941204348,0.01342261362339
0.0116153695372459,5.05907894564074e-07,0.00461329778152765,1.82244739618275e-05,0.00203743309493828,0.000371938453622236,0.0300571319020154,0.0236167072803613,0.000967656735168358,0.0157040571123109
