0.0169519218400348,0.000522700000401533,0.000751810961594134,0.000524291733244288,0.000823902329758864,0.00107368512224892,0.000414252892123705,0.0118656803736622,0.000414252892123705,0.00472449397488328,0.000288599385102625,2.74582883892094e-07,5.68054940364468e-07,2.76226868344603e-07,6.82223720011027e-07,1.15851626287448e-06,1.72462943761156e-07,0.000141369749963883,1.72462943761156e-07,2.2432057421899e-05,0.0134756919983637,0.000344197152226624,0.000482837193450507,0.000350617250475694,0.000567018886836071,0.000557538537529844,0.000293836460463587,0.00929549252804634,0.000293836460463587,0.0025363516533679,0.000574428811410922,5.46373998973542e-07,1.13035590008628e-06,5.49666188999011e-07,1.35752556015953e-06,2.30012173961611e-06,3.43145944578918e-07,0.000281430168854788,3.43145944578918e-07,4.46261978495724e-05,0.00913317765068633,0.000265899927619168,0.000298590208402772,0.000231816879684419,0.000254081160209617,0.000329433554604986,0.000258831107183349,0.0102587690704285,0.000258831107183349,0.00173931939607664,0
0.0138299654634925,0.000240860682859082,0.00071937681648645,0.000231381052737577,0.000753666136481732,0.000330371014911641,0.00584241716488783,0.00758446350632379,0.000228075992447243,0.00132520889285045,0.000192055200195937,5.82808179426333e-08,5.20078077087675e-07,5.37099594115644e-08,5.70866160438829e-07,1.09591583938543e-07,3.39084393425067e-05,5.74550972432483e-05,5.22754416464304e-08,1.76495916347073e-06,0.011385303337052,9.03608355913104e-05,0.000382146409719256,6.59676600776175e-05,0.000443922854767249,0.000127604714515823,0.00189668042122348,0.00617657261709017,5.79697935567202e-05,0.000847086293347576,0.000382306721012937,1.15755544579587e-07,1.03238845335478e-06,1.06699397973561e-07,1.13583875549069e-06,2.18188425939153e-07,6.78723209530759e-05,0.000114681852920106,1.03742927035604e-07,3.51230324555016e-06,0.0078850383648854,6.05479124996718e-05,0.000226403211120747,4.14372875129062e-05,0.000202285797010282,6.84595073149317e-05,0.00189649993105263,0.00361564001210804,3.66976455271899e-05,0.000606891698406667,0
0.0160301859765238,0.0312085547368755,0.0272233408025441,0.00852203834908253,0.00289574418576711,0.0010045000122115,0.072517903197004,0.0169879262884673,0.0423636005788661,0.00604472799034865,0.000258151987826437,0.000978795964495889,0.000743624711398734,7.29208683143499e-05,8.42642036269537e-06,1.01400861624371e-06,0.00528521836394113,0.000290015544054946,0.00180369151009201,3.66915504105322e-05,0.013028885832242,0.019892967403491,0.0174154775342833,0.00499747926467323,0.00173904269626173,0.000538598729022008,0.0505116357606647,0.0140172788282448,0.0288050927449984,0.00459791330227313,0.000513827378259208,0.00194787358860557,0.00148098403030943,0.000145176663425634,1.67515197869058e-05,2.0177812613397e-06,0.0105172122205438,0.000577145168127013,0.00358933812953398,7.30414333536001e-05,0.0117513149076977,0.0220073011791244,0.0165382150083955,0.0057606034535027,0.00140147604160256,0.000421375885090321,0.0355247489823951,0.0106846206477743,0.0363950204556966,0.00430043649606385,1
0.0168744020947573,0.0067206852231908,0.00701850516035153,0.00146327016576393,0.000716547313316273,0.000439804566486403,0.0322038520395205,0.00852525162532212,0.0293742515525171,0.0191213989830845,0.000285891283971709,4.53182549262909e-05,4.841113835907e-05,2.08516659505944e-06,5.1527578179737e-07,1.9426767045344e-07,0.00104229738981488,7.30418088876276e-05,0.000866964319718408,0.000365774855288573,0.0137538506002749,0.00467737491772945,0.00492178022102156,0.00104986961423595,0.000464488619483333,0.000271077893410025,0.0239925708807379,0.00691802875207083,0.0214894041865664,0.0129952228942176,0.000569205618304667,9.02592019778224e-05,9.74173743522175e-05,4.21549718247837e-06,1.02613610207161e-06,3.86504459235854e-07,0.00207407364737789,0.000145342538699641,0.00172542727690219,0.000729572795265566,0.00922417803370117,0.00354350391233596,0.00571028934420975,0.00151693233822441,0.000277791520541494,0.00019003219109653,0.0192201168698345,0.00485298070605387,0.014526897708724,0.0096105004987488,1
0.0138912063231691,0.00123929526869857,0.00069501736280523,0.000405049842508388,0.000769841988610055,2.70337938837111e-05,0.00930085185962832,0.0090271542152924,0.00251056727605679,0.0115788438580778,0.000193121751059409,1.54336030091656e-06,4.84121728095609e-07,1.6480625260331e-07,5.95534345022896e-07,7.22435253738678e-10,8.63713186008846e-05,8.13816910084463e-05,6.16936536975545e-06,0.000133645116785574,0.0113434317841157,0.000916741168645282,0.000423370045054684,0.000167124732155619,0.000410145871846155,2.00759311021505e-05,0.00666195434357217,0.00700397179732942,0.00171793305987186,0.00859453583185876,0.000385110533373622,3.07084070707215e-06,9.63490164267269e-07,3.2560158056784e-07,1.18081090426783e-06,1.44964896703194e-09,0.000172445005408137,0.000162435697426327,1.24413943471282e-05,0.000267044937784354,0.0084014007917405,0.00138034312770244,0.000277514554094404,0.000100258796835152,0.000267802250185471,3.19051560055897e-05,0.00508696304921165,0.00535072950556597,0.00271061061835851,0.0137193972861387,0
0.0168245657657812,0.000211112447366069,0.000718314210438513,4.46036674501389e-06,0.000895281024768229,1.78448580768614e-06,0.00079206775847119,0.00721277896901592,0.000147438670169872,0.00110216292497408,0.000283737276708284,4.47057723562703e-08,5.18509203218468e-07,1.96602753832184e-11,8.05000529924013e-07,3.10699722707336e-12,6.26443600934476e-07,5.21592301463761e-05,2.14630046865672e-08,1.21111015245524e-06,0.0136871054254081,5.83413284268069e-05,0.000401711922276213,3.36289031810098e-06,0.000552834898728819,1.26523480066267e-06,0.000441805193611397,0.00568977159197955,9.90446116231845e-05,0.000810591884743613,0.000565380556625807,8.86854998469419e-08,1.03085093423895e-06,3.94567806166344e-11,1.60160119173508e-06,6.27584569440637e-12,1.25028115688114e-06,0.000103911981478302,4.30938445784239e-08,2.41821874895786e-06,0.010647766788778,4.87055083487988e-05,0.000251804229125664,5.23585996886627e-06,0.000244121184322461,1.97992889923325e-06,0.000265444722212315,0.00393026514491149,0.000157980297556478,0.00102321313254109,0
0.0153759822548387,0.0800713792473435,0.0192270013225411,0.00621484859878585,0.00230125139098095,0.000320017203868643,0.0418249605403658,0.0115489244999341,0.0611563188171688,0.0227918374829445,0.000237574601294603,0.00644208515516947,0.000370474622135196,3.86600757114822e-05,5.3173117767087e-06,1.02902818676451e-07,0.00175563416548631,0.000133862081700871,0.00375057821980384,0.000520831710893281,0.0122449187572206,0.0490337200608902,0.0114485129378437,0.00385154469658788,0.0013266694086428,9.90393689528581e-05,0.0241359048255455,0.00883652675245035,0.0370757758471119,0.014029260123119,0.000472796449342038,0.0128210353655314,0.000738293658796706,7.70788232191372e-05,1.05838924153015e-05,2.04799296205706e-07,0.00349606402853361,0.000266567040952422,0.00747192050580745,0.00103769167362239,0.00956959216447674,0.0556656525822518,0.00989249010949219,0.00285899293854987,0.0011407442538312,7.25804135021103e-05,0.0253248373237482,0.00902414687571591,0.0399973926476621,0.0163970126665864,1
0.021360278551905,0.0655610496381562,0.0130277933288256,0.00462813302167059,0.0017360236077902,0.000533612715380773,0.0404926766768096,0.0145726746172197,0.0615607728448844,0.0165560032950015,0.000458343759538628,0.00431587289937901,0.000168779270347289,2.13538467883917e-05,3.02086966999807e-06,2.86171921829015e-07,0.00164764742787817,0.000213429989002154,0.00377966548383114,0.00027239482803788,0.0167270779260434,0.0475217146174382,0.0100030561678571,0.00337128357176812,0.00107230904481908,0.00023190522390268,0.0337701775542234,0.0113835987469528,0.0497422669925775,0.012997299429054,0.000912308875694259,0.00859244325721396,0.000337643762854576,4.26657182712819e-05,6.01850787555571e-06,5.6837494920094e-07,0.00327893483311877,0.000424722879019411,0.0075504927984514,0.000545134070037095,0.016828738564809,0.0493853599235229,0.0108713688756835,0.00329368029368585,0.000729779925186362,0.000190519106635628,0.0378243989099696,0.0090527488112995,0.0507377979476445,0.0124082689427298,1
0.0173407057983699,0.0060535461666427,0.00249253327164719,0.000408061649118458,0.000742635561492418,0.00236024587046132,0.0216556028531622,0.0121090023084991,0.0170129203209656,0.0338710101694582,0.000301134746762996,3.63885102978662e-05,6.16717963963949e-06,1.67134350559106e-07,5.54265704095922e-07,5.59791729529765e-06,0.000470657685617431,0.000147302242102949,0.000285597172546368,0.0011510700637341,0.0142952332555269,0.00463623397057389,0.00191150832564088,0.000284033405528999,0.000425989351996354,0.00121888434359497,0.0168646037786945,0.00988451828744578,0.0126407261657459,0.0267597788508467,0.000600326790503551,7.28519872675432e-05,1.23344331701882e-05,3.32460426700569e-07,1.10267179205056e-06,1.11400227325982e-05,0.000937245094766069,0.000293193117935829,0.000573605438883181,0.00229255834515104,0.00940448803300533,0.00729434845731005,0.00282829818768691,0.000386248522157842,0.000210013285557465,0.00130531962510778,0.0155102032715753,0.0122755229607212,0.0198141558733644,0.0276628119564126,0
0.0158555405655465,0.00042291397646803,0.000639732974684274,0.000234505709290111,0.000712554490393987,0.000855702539371325,0.00741061264886693,0.00732362149968651,0.00210373106380282,0.00586516013135312,0.000252567549991705,1.74435960286638e-07,4.10304852447857e-07,5.52652648454484e-08,5.10068184594086e-07,7.35339507295844e-07,5.49916635991375e-05,5.38994796661876e-05,4.40710203001497e-06,3.4089961602789e-05,0.0119896686256304,0.00030002362525089,0.000372446597036467,8.62892866332881e-05,0.000397664115233547,0.000609832331370368,0.00571748266098522,0.00595222673665038,0.00124826631976488,0.00436205497296867,0.000502699645144551,3.5241979269074e-07,8.17217083803393e-07,1.09710418239255e-07,1.0152515263644e-06,1.46336053608624e-06,0.000109632286801581,0.000107258232258646,8.80948149102919e-06,6.83196063594435e-05,0.0116083569800067,0.000469061145317502,0.000183548264907187,5.69336613978767e-05,0.000248782577372819,0.000893855677103726,0.00443899103844892,0.00491213982059618,0.00149078185036939,0.0066542588553627,0
0.0029881539431426,0.0398900374265469,0.00626136215590677,0.00306806927394712,0.00140163280538776,0.000350488440312557,0.012226121049993,0.00617458495287921,0.0338080773612837,0.0137500620776844,8.96249516593277e-06,0.00159815625440955,3.93948372439038e-05,9.4157930928466e-06,1.96667331311836e-06,1.23449205801434e-07,0.000149851371415543,3.83170752674375e-05,0.00114863219206038,0.000189914480527113,0.00227015521802508,0.016384857725693,0.00196425766248881,0.00126001982062577,0.000628010456908924,0.000112870608763764,0.00813567559509367,0.00490808048714287,0.0133938906244874,0.00527702664540334,1.78385091581658e-05,0.003181043185932,7.83672992383449e-05,1.87799107495138e-05,3.91747768623582e-06,2.45193740996154e-07,0.000298577791800769,7.62273484163032e-05,0.00228570533641,0.000377993899591307,0.00195581340760663,0.0186406541230527,0.00223270047135744,0.00128022589239941,0.000407737799434474,8.39052326285815e-05,0.00751940996025582,0.00441156816769467,0.0165217732234538,0.00667345445329068,1
0.0122138592258802,0.0740580333155988,0.0467108192873535,0.012488794022679,0.00615124390053714,0.00193153962294003,0.0716780531473529,0.0141485325192124,0.0820194441489841,0.0311420183899868,0.00014966059458436,0.00550689012231837,0.00219270497473838,0.000156661245423463,3.80173546804157e-05,3.74959150676871e-06,0.00515509698899582,0.000201132272936147,0.00676089436920221,0.000974416110323368,0.00979226038035455,0.0601747593327936,0.0379795259229504,0.00878620128840007,0.0036582970383874,0.00135463588457151,0.055950859528364,0.0112843484465578,0.0652570183760098,0.0211212342894536,0.000298080825141436,0.0109633582098676,0.00436352737105689,0.000311749133600653,7.56557772965246e-05,7.45878584865473e-06,0.0102670144710499,0.000400305615958736,0.0134541128450485,0.00193936664074224,0.00749617881689975,0.0480329545544251,0.0242970530743036,0.00747811997076119,0.00324045796672845,0.00101974928937389,0.0387242960563234,0.00992729498426747,0.040545645817309,0.0173121133694413,1
0.00547134251846661,0.0469469601051351,0.0132868545072205,0.0010944310770307,0.000757861465426205,0.000154792586833378,0.0426821272097996,0.00990167551675696,0.0382017512458138,0.047249880917407,2.99866544962431e-05,0.00221419213006362,0.000177307384779308,1.19621249703578e-06,5.77238088435865e-07,2.40438805333372e-08,0.00182645547226445,9.85314663394599e-05,0.00146664295544092,0.00224371621094437,0.00430804696906925,0.0369392996281962,0.00904760714776847,0.000838965307444839,0.000441461856223395,0.000104678203155841,0.034829173913835,0.00788088784754782,0.0283984033270603,0.0333660011550534,5.97721575603586e-05,0.00440710915608616,0.00035296025984085,2.38796805762875e-06,1.14565963000957e-06,4.78831299586312e-08,0.00363892806310409,0.000196081655707844,0.00291867277649214,0.00446494280052076,0.00349367254049573,0.0314821915496071,0.00984832890089489,0.00121137637034441,0.000240620266735733,0.000142691583711547,0.0282282638338601,0.00843601909974568,0.0215256717809259,0.0362426936529594,1
0.00205549703467926,0.00648091954949991,0.00140185846407845,0.000342376846913981,0.000786161329989149,5.63354767924684e-06,0.0117980742831607,0.0058002940604655,0.00497887353074221,0.00754450235173251,4.23834702076908e-06,4.21323901604874e-05,1.97480717837144e-06,1.17761969218812e-07,6.21083201607184e-07,3.14464846496033e-11,0.000139818339432342,3.3797287908509e-05,2.48625152654489e-05,5.67656431740682e-05,0.00147021076804708,0.00456431268585651,0.000985238296852058,0.00016739578133664,0.000461515847393789,4.09083914288044e-06,0.00967769155421353,0.00473739387457588,0.00352512966105775,0.00560406026841924,8.44200265367712e-06,8.3921718735552e-05,3.92969389958811e-06,2.33266609755452e-07,1.23504071529368e-06,6.30249940863714e-11,0.000278313734803392,6.72620100011004e-05,4.95180152972196e-05,0.000113391510057644,0.000880216173964324,0.00726996812470325,0.00130798176345639,0.000105699514766672,0.00022757777355079,6.23811253324264e-06,0.00733310365415116,0.00350138440471696,0.00481831120724813,0.00569485104917405,0
0.00227495074064337,0.000369251196517168,0.00101559296424933,0.000326224021608497,0.000556974407889059,0.000318565341147671,0.0117685595410116,0.0072884447020016,0.0112968943551511,0.00536707005551391,5.20095702081888e-06,1.36278203391451e-07,1.03643836333848e-06,1.06955616042299e-07,3.11528072318492e-07,1.01967776837597e-07,0.000139074020464011,5.33857738240311e-05,0.000128241356254403,2.89135165076715e-05,0.00157610538939785,0.00025385217406608,0.000541717954960771,0.000119773103512776,0.00026611595365016,8.94217085612847e-05,0.00940133884850898,0.00546339843671672,0.00691736335403855,0.00435660838889971,1.03495597123041e-05,2.71935868110687e-07,2.06240147077335e-06,2.11729428832985e-07,6.20190873595376e-07,2.01820714191978e-07,0.000276875993310163,0.000106239822278281,0.000255219673244741,5.75481619015621e-05,0.0010613584393261,0.000408454098946638,0.00027957474993796,6.65282652013572e-05,0.000177954063259939,6.72081244269392e-05,0.00537325252874911,0.00531413227632943,0.00448662115723699,0.00258778187071544,1
0.0289280255557029,0.209905060242601,0.109714868574967,0.0391745550594829,0.0180594498336795,0.00793897288635864,0.112937804302579,0.0275258146083622,0.183208668239596,0.0769790521545739,0.000839104390772739,0.0442643604281849,0.0120876017724226,0.00154191976861257,0.000327512759459759,6.33362136102487e-05,0.0128042280738876,0.000760437437810112,0.0336906644783845,0.00594870321532515,0.0219362615140059,0.156900827042348,0.0810866257685089,0.0292720971816317,0.0116713583146913,0.00524635215512298,0.0835231258784837,0.0204977083210803,0.141567997581981,0.0590872258172389,0.00167172770157373,0.088100884750742,0.0240645086055081,0.00306885579023605,0.0006520172171657,0.000126032843327558,0.0254951135397165,0.00151426201644384,0.0670874906734835,0.0118447333575941,0.0210654834638212,0.149753154801196,0.0858907618172247,0.0313450004746773,0.0117159277223327,0.00523018496647623,0.0839877228350858,0.0151906933057355,0.111773934928785,0.0545414578438523,1
0.0136157516091202,0.0765639386241828,0.0566857210540162,0.00802488103820625,0.00412215210258699,0.00290912131818645,0.0754081889849943,0.0149176598155978,0.120393535088795,0.0352279185357304,0.000184526007633289,0.00586961943581436,0.00320488086106008,6.4249886256379e-05,1.6817213919146e-05,8.50099421908257e-06,0.00569409908909955,0.000222241773171132,0.014488906928576,0.00124178671869942,0.00967821572701005,0.058354024070036,0.0413981211179208,0.00443968838515171,0.00224962073639517,0.00212900635397458,0.0618143462198221,0.0116205640669833,0.0882968638195722,0.0244896366253065,0.00036899199314783,0.0117022347672209,0.00640208302771305,0.000128326007696529,3.37249365977121e-05,1.69199277081057e-05,0.0113518660009764,0.000443620619261959,0.0289110651898514,0.00247657472834446,0.0115746201598005,0.043134849052829,0.0262192741551642,0.00544868266501526,0.00264445533994222,0.00262828536207122,0.0670977650540258,0.0112203029686366,0.066222967241355,0.0280467796420086,1
0.00319207120427683,0.00776245827931762,0.0212022485274455,0.000276985383494903,0.000782368657812032,0.000379870361342109,0.0188199088698994,0.00927052990579247,0.0253963046918301,0.00776348161491695,1.02322091794255e-05,6.02910136146385e-05,0.000448377572075299,7.65599872032977e-08,6.14321050031695e-07,1.44414651851768e-07,0.00035415501810163,8.637047477199e-05,0.000644162366574967,6.05654643015916e-05,0.00239274061253116,0.00519717749130784,0.0157660108898432,0.000157104596630705,0.000458247259658987,0.000203756632035912,0.0140055574757056,0.00766196886304595,0.0208313858539693,0.00638574793816927,2.03668208426054e-05,0.00012023601635146,0.000895663461594995,1.52646317068115e-07,1.22335000229137e-06,2.86957719604326e-07,0.000706567256277704,0.000171880831721634,0.0012858807332237,0.000120529629506902,0.00171169825614789,0.00669526362379057,0.0169345067545606,0.000177902930549411,0.000213557127617355,0.000216544857866889,0.012428605344335,0.00833252885695595,0.0251182074696894,0.0064736707147258,0
0.00416404466317983,0.00479303465809352,0.00352900513186117,0.00039626153192752,0.000680582563914993,0.000327405533876703,0.0143693467170498,0.00699596484710223,0.0128556562229916,0.00529703716721736,1.74132304017134e-05,2.30521095448952e-05,1.24672373967476e-05,1.57808887387966e-07,4.6545511014663e-07,1.07730455564053e-07,0.000206788326226911,4.91878685265239e-05,0.000165708477445091,2.79581094797054e-05,0.00287516989354926,0.00126917684720925,0.00197460194502209,0.000174485951721312,0.000390407490307138,0.000115884615342503,0.0111764589631653,0.00555558701849427,0.00676472117947995,0.00396044901605176,3.46644367971549e-05,4.5909991938342e-05,2.48586904701681e-05,3.13761919477564e-07,9.23888364383263e-07,2.14386176623004e-07,0.000412203517048734,9.78753385378096e-05,0.000330147381116401,5.58571253316789e-05,0.00176637248138091,0.00163708192066248,0.00124605423026037,0.000102811719086975,0.000212169235074744,6.67902306601669e-05,0.00805132319213303,0.0041612534187508,0.00544877871442132,0.00343230748680168,1
0.00954643557350078,0.091994734820112,0.00789366974478779,0.00584890691469105,0.00295687570284429,0.000881517247415141,0.0346640198562747,0.0159657722175609,0.0489659555221579,0.011748313271742,9.15636015098543e-05,0.00850327797202347,6.26037077778655e-05,3.43787178709796e-05,8.7808539918372e-06,7.80884964269689e-07,0.00120494299924269,0.000256146770800701,0.00240957698444356,0.000138716237415035,0.00743333946702234,0.0662089963691156,0.00574450851977085,0.00400054566888396,0.0018725825390701,0.000458512350143594,0.0271030888378091,0.0125268079410773,0.036718474547437,0.00874506911310848,0.000182228157264669,0.0169237048136408,0.000124600226674131,6.84142442682139e-05,1.74695766188763e-05,1.55381688308332e-06,0.00240034166121109,0.000509674371680083,0.00479513736022315,0.000276044488946164,0.00638625945941273,0.0559163479554018,0.00557004490855105,0.00279512172826374,0.00143737482029066,0.000348602914619181,0.0156177251391535,0.0127636199745962,0.030938854075392,0.00575108163103052,1
0.00633685779714864,0.0503819556214452,0.0154641262143108,0.00208057779087795,0.000915275365203182,0.000124585917634722,0.0363851627829226,0.0110266398297908,0.0570518903247765,0.0298135140079048,4.03502592355491e-05,0.00255051726465192,0.000240238367006923,4.34817787605822e-06,8.36025685195826e-07,1.5461154180349e-08,0.00133020078655108,0.000122159509038807,0.00326631424714573,0.000891714000731762,0.00484587956113618,0.0358435858575328,0.0113530131566092,0.00153215258997034,0.000663869869484993,8.839940097185e-05,0.0303928000682625,0.00896536987139022,0.0448399185257079,0.0208882046934003,8.03042711711061e-05,0.00507608597243604,0.000478175851965107,8.65523729117651e-06,1.66868431479971e-06,3.09049912258269e-08,0.0026474297179414,0.000243121383191435,0.00650465758633375,0.00177605433248734,0.00420715113857409,0.0342887976084712,0.0108757917294389,0.00226838152332745,0.00082107182041232,0.000141951238120496,0.0253500912650194,0.00553618942406519,0.0376568307907511,0.0199532622602567,1
0.00232274185161069,0.00584963832456192,0.00356421977208423,0.000264825418201047,0.00055965632598092,7.42422713759963e-06,0.0198964121114898,0.00770827824955207,0.0144079553850231,0.0109775214322784,5.4217930902411e-06,3.36354182156583e-05,1.26585961250539e-05,7.04693347302826e-08,3.14783651935534e-07,5.47271370852768e-11,0.000396577390348632,5.96561851231911e-05,0.000205528983782593,0.000119501412878224,0.00148687653541085,0.00429906709841427,0.00211747178427509,0.000139901097852948,0.000274710883696464,5.09451026698589e-06,0.0158898560418289,0.00620932973907287,0.00954147097408131,0.00804410629661132,1.07868985197174e-05,6.76853848961316e-05,2.52929270361507e-05,1.39942967279724e-07,6.25326262376547e-07,1.095704649026e-10,0.000790461619661612,0.000118760146054813,0.000412081521839761,0.000239403974135686,0.00135429337038977,0.00669891454033652,0.00253712919471379,0.000144303203422732,0.000154247024041755,8.22010006991582e-06,0.0115932127041851,0.00496154368032154,0.00822417440130902,0.00905192166807268,0
0.00212383846994266,0.000335690541935186,0.000811054345887754,0.000315723037274835,0.000678089688812644,0.000399913875528569,0.0115293533875413,0.00847435995057617,0.00345687774834347,0.00810454612799073,4.53289770168133e-06,1.10551796417372e-07,6.61106414221742e-07,1.00180673958467e-07,4.62112215243147e-07,1.60734516458354e-07,0.000132991577986005,7.21688949326387e-05,1.20090835041943e-05,6.59942448268472e-05,0.00145168876424831,0.000241887293619037,0.000475163125494655,8.92870308580517e-05,0.000381493875074831,0.00015428207719487,0.0093287747730333,0.00646103167272079,0.00228385336636335,0.00670152353854004,9.02054310497782e-06,2.22685633065728e-07,1.31304314495098e-06,1.98294156399723e-07,9.13090730779682e-07,3.17371298946131e-07,0.000265249591434833,0.000143620595015549,2.38984791708769e-05,0.000131342556994556,0.00112941814057947,0.00037217286145524,0.00024186527099699,7.22399453492708e-05,0.000248259127867611,9.56468640879433e-05,0.00475377045066376,0.00592437402917017,0.00148357393991362,0.00432650146144266,0
0.0102263765581534,0.0812730266687889,0.0384271168840346,0.020762992056967,0.00704418256893452,0.00158073858714512,0.0355070568481905,0.0122543783379025,0.0629821724372205,0.0553314875606263,0.000104972122930113,0.00663580595289523,0.00148136065953176,0.000433230282354423,4.98695956592865e-05,2.51126650226298e-06,0.00126690853391959,0.000150907020245969,0.0039866097723901,0.00307191457209439,0.00793472868656058,0.0601925734380382,0.0295814014479894,0.0158157280853758,0.0040372966685593,0.000837891171185888,0.0247214312538651,0.0102589657832835,0.0496492919528088,0.0426872850321914,0.000209022825533419,0.0132078942957021,0.00295058377514903,0.000862158589768987,9.92405553126371e-05,4.9970609000012e-06,0.00252120576627035,0.000300314486783191,0.00793339037480133,0.0061180246205116,0.00531371959554189,0.0438108597503555,0.0170508953692103,0.0124663207046852,0.00338495982452458,0.000591976468048483,0.0179030428818216,0.0072285863745634,0.0314822500710479,0.0471188169654841,1
0.0113079297254525,0.069657441437918,0.0767532083793205,0.0080550318689066,0.00330360153871861,0.000430839046448883,0.0387858956389205,0.0176193687768334,0.120307061933335,0.0389305086702791,0.000128328181718436,0.0048519882577375,0.00591568387519736,6.51711768017516e-05,1.09681613464955e-05,1.86527162383768e-07,0.00151172354024611,0.000311999418339281,0.0145462673043924,0.00151589265965199,0.0087252449160363,0.0533376487723377,0.060945102488681,0.00544583651762301,0.0023612195427605,0.00029712113991319,0.0322587483883146,0.0133970622383229,0.0890890938766309,0.0297597192644236,0.000255529336097874,0.00967958778552131,0.0117771088113169,0.000129728841524898,2.18248688594415e-05,3.70838927817503e-07,0.0030082922148907,0.000620816883989804,0.0289473117832169,0.00302387873885912,0.00697900436590781,0.0358114345422608,0.047873252768952,0.00660222852164041,0.0034914907997619,0.000396009873235025,0.01949953856526,0.0127449830365641,0.0631131280642544,0.026294529686813,1
0.00500480823278239,0.0425253406881897,0.0407629685347489,0.000805869491849867,0.000688009342571828,0.000233029671126367,0.0231893135281309,0.00998904856333628,0.0831084871710485,0.0177562964634234,2.51735918215235e-05,0.00181075082932141,0.00166982005227521,6.52664530105463e-07,4.74432103321505e-07,5.45748930470102e-08,0.000540275685264351,0.000100281367340544,0.00694014779667805,0.000316646001512116,0.00362211523613673,0.0340011460176857,0.0332702436688943,0.00054560574292897,0.000398032920067258,8.05638032918186e-05,0.0189230460637488,0.00800993025136188,0.0657996890501568,0.0137256225101151,5.00876976614664e-05,0.00361009772576396,0.00332242026567237,1.29807676093862e-06,9.40768903445447e-07,1.08333396015831e-07,0.00107531573144029,0.000199557310905063,0.0138124655926143,0.000630333921462831,0.00235866290126777,0.0383813379931766,0.026664857161444,0.000818335655044958,0.000269516922381984,4.66085640096156e-05,0.0155995069237247,0.00682523544155432,0.0671760331474877,0.0130701625737852,0
0.00424272140613124,0.00921088834925415,0.0529524372393212,0.00033013481813578,0.000512760559183216,9.98519018654069e-06,0.0234156736106377,0.00781617618672624,0.0585646139414341,0.00712148572046985,1.80680421986618e-05,8.48604145197911e-05,0.00281686788665059,1.09530701049579e-07,2.64153637105904e-07,9.97974295133009e-11,0.000551047851181266,6.13600133188517e-05,0.00344541431376317,5.09652950710299e-05,0.00333638008680486,0.00677590121191246,0.0423936560549127,0.000116703345652731,0.000223883597090014,7.30277782706354e-06,0.0173098973016121,0.00617495146518392,0.0453024754869906,0.0057215143838131,3.59752695949575e-05,0.000169245189202754,0.00560655393169357,2.17971895088434e-07,5.25491766384081e-07,1.98997282382948e-10,0.00109658222393213,0.000122142503507006,0.00685798530316123,0.000101420316021078,0.00219253097059206,0.0103838302494231,0.0250042225370179,7.23732308318105e-05,0.000159399524934473,1.11626258338582e-05,0.0143224551032348,0.00443956637056603,0.0304591966269697,0.00442788942678872,0
0.0150435795097697,0.127593522015704,0.0699063187100216,0.0236465701429871,0.00751775008150784,0.00258510336528466,0.0608029832962187,0.0155676317092249,0.090307154635945,0.0410991509386618,0.000226051493133684,0.0163557618935312,0.00490180937339313,0.000560157317443697,5.67823983445813e-05,6.69130943291114e-06,0.00368465447468617,0.000243267951099891,0.00816488708912778,0.00169720951549595,0.0108535940913618,0.0944205394536989,0.0548322584029318,0.0163442460450434,0.00429744584294618,0.00108342893444299,0.0385562541916182,0.0117154309949778,0.0739045878188497,0.0291479774155149,0.000451219544235948,0.0325540838406922,0.00976415476227876,0.00111649253050935,0.000112998068132862,1.33284082457252e-05,0.00736293611516703,0.000484396919770136,0.0162792974937457,0.00337785282216354,0.00966962117252523,0.0760587897979002,0.0388321550767839,0.0146092228874199,0.00448056069584168,0.00127075081645004,0.0299589569295106,0.00831908573962891,0.0408903463326698,0.0247750978896509,1
0.0159311021319793,0.07269336565532,0.0805962853462984,0.0235284160167695,0.011184281506267,0.00234701468772183,0.0580241121875015,0.0154060088203208,0.142205354309572,0.0446018143559681,0.000253853872377011,0.00529835758089811,0.00651200401186713,0.000554043454996435,0.000125668316017889,5.50646682786087e-06,0.00333831189484645,0.000238479609188071,0.0202926901467937,0.00199653025856926,0.0111616051061866,0.0542874057671528,0.062993347510514,0.015572379410401,0.00771119868394746,0.00156526485591078,0.0448782123111852,0.012197165340469,0.115543009202642,0.0318671320115542,0.000506383564406327,0.010556189195967,0.012975044548674,0.00110484321072858,0.000250100295265239,1.09871789113956e-05,0.00668835793410136,0.000474553421472603,0.0404134941646649,0.00397582957084957,0.011784463474896,0.0378810061307475,0.0456675151808983,0.0152237097839498,0.00763819377846518,0.00165069953470051,0.0510012903894846,0.010463920568627,0.0824881628727812,0.0268652044157908,1
0.00359924800511369,0.0106132090779635,0.039101553852844,0.00114735574470212,0.000970461943393542,0.000332558141092288,0.0405041748942407,0.00868801458045023,0.0602433584985116,0.0253263808805817,1.30196364411151e-05,0.000112200276921885,0.00153473284453245,1.29369010709895e-06,9.40029376706647e-07,1.1093035812332e-07,0.00164451356728035,7.58548205069602e-05,0.00364505889958865,0.000643530068035426,0.0023527487988673,0.0074700469206535,0.030436870107283,0.000813102580038868,0.000683267850955947,0.000150906390277832,0.0328084440892923,0.00702924950435771,0.047897296750869,0.0173998994966089,2.59026976698452e-05,0.000224278551854539,0.00305598224972079,2.6036327302265e-06,1.87465218848321e-06,2.20970547578395e-07,0.00327687912101835,0.000150957056678243,0.00725608912871316,0.00128166032563953,0.00160002097267559,0.0083685590353018,0.0189387721774723,0.00122865027167307,0.000627771583758758,9.2850636574921e-05,0.0348376525271313,0.00570498461012109,0.0319625685081503,0.019352876402917,0
0.00184548589891485,0.000524065054051353,0.0114725471941078,5.41653473036804e-05,0.000721706986198859,1.46484669137131e-05,0.0186988619975775,0.00681817446458313,0.0146768476338194,0.00637966755522071,3.42120353155748e-06,2.75692875378389e-07,0.000130817485593506,2.89030025685843e-09,5.2339853645864e-07,2.15164415247865e-10,0.000350944514891477,4.67209493789386e-05,0.0002155083636698,4.08985516592838e-05,0.00123160361356989,0.00036621681414562,0.0083897559180343,3.91573447733556e-05,0.000434837629563921,1.02636981871169e-05,0.0148153317698969,0.00576780504832568,0.0113114046735406,0.00405993377982211,6.8029932225509e-06,5.48950033252913e-07,0.000261773726494239,5.8096635835338e-09,1.03685079588742e-06,4.28654199187457e-10,0.000698828245830419,9.2963152997702e-05,0.000429839464453105,8.13912811335553e-05,0.000701704266349008,0.000471777779460509,0.0134045093670528,5.98668377617459e-05,0.000237378579494272,1.63910062536408e-05,0.0132051864923258,0.00352440514283747,0.0174390247626386,0.00362574464779195,0
0.00311699149686666,0.0296532558349423,0.00140547225372426,0.000462704996267212,0.000775453763710317,0.000319879989672127,0.0283572437512023,0.00727057180631748,0.0224098852152977,0.0115155118571737,9.76365423040186e-06,0.000881783743196706,1.9697742267918e-06,2.1517157371569e-07,6.04224243384733e-07,1.02819756028352e-07,0.000807101843190315,5.29473165915326e-05,0.000501912527025916,0.000132219499512415,0.00220115581718045,0.0129920942162416,0.0009786114968878,0.000216427947908149,0.000459012733546922,9.77284065257065e-05,0.020695975743402,0.00564643057296765,0.0114449633996598,0.00663253218947071,1.94301564754988e-05,0.00175664021395582,3.93434284256417e-06,4.27112895567634e-07,1.20140636342686e-06,2.04628821622768e-07,0.00160714610550653,0.000105543149071885,0.00100156044971711,0.000264164623580786,0.00142138057982443,0.0165688884046172,0.000842031049582454,0.000124953157712093,0.000263407256841613,7.32780859718916e-05,0.0140292715455965,0.00358727899542191,0.011964609997714,0.00549177132639875,1
0.0116245218206248,0.0655205557863089,0.0346188197970602,0.0106127757987161,0.00423208216696515,0.000456414328727875,0.0407745306893532,0.0137611088087857,0.0714308460214907,0.018397985933954,0.000135808545042375,0.00431436717935815,0.00120254060028894,0.000113059076477423,1.79943660263298e-05,2.09356056465944e-07,0.00167021916946424,0.000190298318082706,0.00512348841846734,0.00033999234444309,0.00921297828812804,0.0540019847028376,0.0245123848706867,0.00852293580491736,0.00305393185433827,0.000191037417290002,0.0332930655334097,0.0115143608740909,0.058226618843593,0.0145747026767321,0.000270256437597865,0.00858535656846844,0.00239494436416535,0.000225122557238532,3.57897836797652e-05,4.15510050168536e-07,0.00332438145314418,0.000378714753949773,0.0101999167156184,0.000676770361645712,0.010851012976749,0.0299681441528379,0.0173217029174496,0.00640842766690373,0.00210881318679953,0.000125413765654364,0.0203967768955082,0.00731576152775774,0.0374776299783857,0.013066497836219,1
0.00560452898061323,0.017457721254486,0.0279887074810866,0.00279616354651011,0.00118713459617556,1.24044956386695e-05,0.0316146827612903,0.0117148830922221,0.0556554348154371,0.0383933928369197,3.15685832405243e-05,0.000305192607264387,0.000784206446703796,7.73950935517972e-06,1.41150051822236e-06,1.50602727600592e-10,0.00100398512037749,0.000137446546769345,0.00311308533943175,0.00147920158686907,0.00401142169630724,0.0133490101173848,0.0203926908808472,0.0019826127793846,0.00089842770839098,8.53811036168407e-06,0.0254366751163167,0.0090093534251484,0.0437637896684665,0.0287576232029097,6.28195241380331e-05,0.000608437417385812,0.00156363951919137,1.55192073258611e-05,2.80811262246404e-06,3.03717296128913e-10,0.00199843676442224,0.000273928272688521,0.00619459088611214,0.00294585220070799,0.00309598751906725,0.0127057958418337,0.0204900046590086,0.00315797627640019,0.000894779809486952,1.30680107468934e-05,0.0149782291323348,0.00686950675551969,0.0489018880286683,0.0280438327521486,1
0.0028687098987684,0.000969726416515695,0.00775699116934501,0.000285546419561017,0.000519954461827412,0.000229631502638426,0.0226049667657742,0.0092984999166087,0.0137737075653365,0.00936869450077423,8.26679999821059e-06,9.42921975472677e-07,6.03595593116951e-05,8.11690480916834e-08,2.71708002196141e-07,5.29911275217701e-08,0.000513424099741195,8.65398169893996e-05,0.000190276266402539,8.76267625787291e-05,0.00218081793564597,0.000685655521036804,0.00559085236474097,0.000159955308226535,0.000266194517438769,4.93204495158318e-05,0.0177859331371595,0.00779409433932139,0.0103893043662323,0.00742712950009426,1.64521412772434e-05,1.87694376486748e-06,0.000120228647753748,1.62030105026916e-07,5.38551186602468e-07,1.0517313495763e-07,0.00102180644049553,0.000172554716574396,0.000379028885881187,0.000174960166772615,0.00147743863426632,0.00100457251450695,0.00865958822317107,0.000199083108464797,0.000148897178301336,3.74217644875636e-05,0.0185426305039066,0.00596727995491926,0.0153814563487783,0.00748011915302904,0
0.00585845816193636,0.0393977594769798,0.0201575818810598,0.00586239753089667,0.000721508572510817,0.0002333939363095,0.0190488735834695,0.00831285902124134,0.0401035455157345,0.0247212185359242,3.4460230158212e-05,0.00155932724226772,0.000408143064223083,3.4470418194638e-05,5.23190533842002e-07,5.47366251252684e-08,0.000362720812091946,6.94040357500502e-05,0.00161586747415691,0.000611506627084972,0.00385042629134552,0.0180814317219403,0.00938236395672418,0.00309021112973297,0.000425631999977556,8.02366336321559e-05,0.0158400151729327,0.00639438792334235,0.0234603279735908,0.0139830785976031,6.86092057305237e-05,0.00310371281537804,0.000812398647058548,6.86656131657307e-05,1.04003167238792e-06,1.08651375299952e-07,0.000723761462271598,0.000138159488035777,0.00321607721314023,0.00121957489881704,0.00360344702206746,0.0199510799574372,0.0113310249944711,0.00282613023441076,0.000198064121364391,4.39275952182424e-05,0.0134781140130959,0.00408307925132931,0.0189653913550164,0.0113958817779691,1
0.011092495171712,0.0670155540308062,0.050483878750355,0.00880700969742079,0.00295237936394681,0.00032282068719676,0.0408831611494249,0.0185085614370852,0.084291380030345,0.0458197625886267,0.000123489908081312,0.00450539986650022,0.00256061598215009,7.79224981276775e-05,8.7579804163415e-06,1.04730238750387e-07,0.00167980213872778,0.000343838643188839,0.00713356454667995,0.00210826362960399,0.00888473666404688,0.0533936457252063,0.0413212874793873,0.00600584331980197,0.00185536305678116,0.000110402174904316,0.0344407181810157,0.0150447255206416,0.0689872175809541,0.0349016705342282,0.000245901606261572,0.00897371197624173,0.00509642453662527,0.000155096134197969,1.74295869594849e-05,2.0731894064018e-07,0.00334283469893341,0.00068467159529395,0.0142028778137822,0.00419713762680557,0.00880168804759765,0.0371398131359674,0.0282352902991078,0.00529117978754858,0.00121695563932811,6.63561905468529e-05,0.0276799306314094,0.0140804986771004,0.0508273181831413,0.0477231350762219,1
0.00400914437863353,0.0455772004491072,0.0155614378130824,0.000681994625228254,0.000630044893507048,9.0932258891733e-06,0.0220673998922239,0.00832781452144528,0.0451063941343564,0.0306658652026457,1.61125959002968e-05,0.00207250399574332,0.000241682118547635,4.59644172283264e-07,3.97327990246261e-07,8.11184438349161e-11,0.000489167818744761,6.94335845339313e-05,0.00203984528523818,0.000945107804227021,0.00303062754956061,0.0261812373866377,0.00709056611236148,0.000504229137077784,0.000337088871063975,6.58680895810735e-06,0.0181828144805702,0.00662302275703967,0.0334131684369035,0.0217965481012102,3.21052257355312e-05,0.00413935347578513,0.000482603856545047,9.22461363478737e-07,7.91238627119425e-07,1.63398931113707e-10,0.000973682161016638,0.000138438670819507,0.00406417633396749,0.00188077743306795,0.00260341597484569,0.0271237940534571,0.00856901955035588,0.000688905649393623,0.00028174599940224,1.02004929893838e-05,0.0153575218763119,0.00566185252915189,0.0279378133541987,0.0221758534863103,1
0.00147662402344654,0.0016482897426254,0.00458666104435105,0.000330329324556642,0.000634540277911061,0.000231028073104437,0.0125649292753691,0.0085003625717122,0.0152580892006764,0.00852603359968177,2.18977381234103e-06,2.68583186964159e-06,2.11310610604164e-05,1.09662477748625e-07,4.04614491120457e-07,5.36403333202359e-08,0.000158646215749841,7.25113792097221e-05,0.000231932599004214,7.29988650354738e-05,0.000923982769914486,0.00119406818110139,0.00269147990550332,0.000130514198849344,0.000320218061297232,6.11081918496619e-05,0.0101406585450151,0.00652718018879191,0.0109772872981928,0.00695080574097019,4.35476135972922e-06,5.3891970645229e-06,4.20615881317191e-05,2.18231615806588e-07,8.04049182212454e-07,1.06467552605516e-07,0.000315726921332949,0.000144404942262206,0.000463567724917324,0.000145314478707328,0.000678465195534315,0.00180945380346928,0.0019579593672382,6.7137002048008e-05,0.000195736055788187,3.66397767214483e-05,0.00832622199042448,0.00615941628116378,0.00717037623016594,0.00539424841695941,0
0.0026750592500781,0.0393418641575937,0.0144129623954971,0.00403661580726167,0.00126693961071286,0.000231605138822373,0.0172836708625882,0.00930869697099632,0.0485496278733007,0.0195733421483376,7.18520580967701e-06,0.00155457659895153,0.000208160008361986,1.63749989258644e-05,1.61248945720013e-06,5.39035881203017e-08,0.000299922414148349,8.70596852362095e-05,0.00236099437006417,0.000384469838746079,0.00182229030495177,0.0142157378877758,0.00521268540649835,0.0012969398182701,0.000613999882492038,7.03466984335281e-05,0.011982178326411,0.00715296173133278,0.0188991845637468,0.0113753124288837,1.4304974081189e-05,0.00309450537538342,0.000414848696105669,3.25868382147771e-05,3.20582899213357e-06,1.06995658866243e-07,0.000597120745724033,0.000173270147419435,0.0047060954019323,0.000765657757779002,0.00153073712113817,0.0213698760951193,0.00677828942392561,0.00156859984672838,0.000461619795974201,3.80076973842135e-05,0.0100471142831166,0.0045616626302116,0.0233675129419688,0.0100844843799353,1
0.0152745161919776,0.0747140991137374,0.0584830127341962,0.00973373817899416,0.00243373151519405,0.00149305045300782,0.0445922853120736,0.0185225536366252,0.0946069929685233,0.0512061101999478,0.000234338565743477,0.00560715447969981,0.00343412016350283,9.52118590586077e-05,5.95211560466137e-06,2.24037824894155e-06,0.00199807533710564,0.000344805306041013,0.00899546038736525,0.00263348442087282,0.011785405541252,0.0587790683204503,0.0487330476253511,0.00738591459343068,0.00163354471318331,0.000773320073794523,0.0353939023480872,0.0140755391982447,0.0763762519353381,0.0376335650551873,0.000466470784822859,0.0111611509863201,0.00683715344598932,0.000189481039032439,1.18436974888261e-05,4.45837600933275e-06,0.0039765527309559,0.000686159826740273,0.0179005757523298,0.00524234353049987,0.0117012318667425,0.0424717393898669,0.0298069016666917,0.00620361151772739,0.00102707666840097,0.00080385229404204,0.027733295087156,0.0104922568768601,0.0455613146243175,0.0259867030770489,1
0.00464799855710428,0.0524677696495475,0.0497112004495437,0.00213943442905536,0.000689438227869208,3.56288001722455e-05,0.037037491682827,0.0122067962472723,0.0971460777036874,0.0498429647892544,2.16251041925162e-05,0.00276533806824907,0.00247274707198595,4.59431660607517e-06,4.77587558869826e-07,1.24302759416172e-09,0.00137715081105901,0.000149749785417392,0.00947922106951564,0.0024932834441741,0.00304122153720181,0.0391542062702962,0.0394846525386446,0.00162788229552868,0.000408203113485043,2.56881898990799e-05,0.0300225115846478,0.00997253494867694,0.0711048623831369,0.035889696896276,4.31198309932409e-05,0.00550437734090812,0.00493158350756452,9.14670855077659e-06,9.47915233438609e-07,2.50621836749554e-09,0.00274200801560885,0.000297956196316515,0.0188688756997952,0.004965130169797,0.00230435276137442,0.0373720981539563,0.0340747266101052,0.00216835497910621,0.00029345504463967,3.9993029817105e-05,0.0177237614763903,0.0116369732887374,0.0578243135839277,0.0284669585500724,1
0.000990100299620051,0.0118236020409421,0.00596537699840536,0.000133167403983188,0.000536640894348814,0.000230670834975528,0.0161031134182871,0.0102375338514035,0.0130739256856506,0.0121348967722104,9.85147132506731e-07,0.000138308705971222,3.53787228979338e-05,1.76984127126879e-08,2.89177652595859e-07,5.34712880129043e-08,0.000258775681209203,0.000105333646592064,0.000171190267121609,0.000145874628357453,0.000653477999906204,0.00842597663480644,0.00441026577428825,0.000102846209492998,0.000285466707661274,5.8118193903035e-05,0.0129467103140917,0.00858699091809097,0.00936238932166377,0.00935465712371815,1.95365209781286e-06,0.000277412143967518,7.07733040699383e-05,3.53432700340145e-08,5.75428649564917e-07,1.06138749688258e-07,0.000516792008062681,0.000209592612882962,0.000341260770855727,0.000292400640200267,0.000349262584511752,0.0134889211007273,0.00666765200936686,0.000161169287912238,0.00017188011905384,3.60375410163905e-05,0.0117018834932784,0.00857274654803069,0.013886666495576,0.00750395527607398,0
0.00189236581324223,0.000716785827149836,0.00189026352998001,0.000227583511910699,0.000875183109431495,1.85430269849563e-05,0.0134113173175213,0.00889894511311888,0.0105548670558932,0.00950583381832826,3.59805334611692e-06,5.04882753016631e-07,3.59090640167641e-06,5.20496256925408e-08,7.69790807790292e-07,3.39746281238347e-10,0.000180669069259204,7.94586830629933e-05,0.000111844287703385,9.08149106824045e-05,0.00127151278147894,0.000505293290973338,0.00103361797417915,4.70362107000403e-05,0.000520193093616092,1.34185176519676e-05,0.0104933086475747,0.00698732662017267,0.00621815891927413,0.00778708111348668,7.16086911612556e-06,1.01594661588192e-06,7.14580292856167e-06,1.0328877899266e-07,1.53080197757024e-06,6.81889736231473e-10,0.000359629072856723,0.000158241891495132,0.000222658694458577,0.000180670463531904,0.000944230223634747,0.000748214472528611,0.000591481736623155,3.85264539228761e-05,0.000261678607767795,2.13589760922999e-05,0.00845961300599678,0.0060120236556066,0.00500660491482189,0.00604460757358425,0
0.0116530647229907,0.109137394083569,0.049708063645424,0.0047414269641048,0.000641626064071334,0.000553718895912157,0.0139486882374757,0.0107892312930145,0.107168664018105,0.072335545599821,0.000136416544630376,0.0119701808886982,0.00248314394231495,2.25936621935862e-05,4.13642577942481e-07,3.07894938079442e-07,0.000195265627500968,0.000116763228436239,0.0115356581106608,0.00525704666640245,0.00719405922574675,0.0726494800800464,0.0303947681526953,0.00270278615605651,0.000348688930864233,0.000262434396936659,0.0116019539307922,0.00841963627496236,0.0748142047409574,0.0522704153601563,0.000271527285940951,0.0238204501843557,0.0049416196183631,4.49602542145647e-05,8.22129318416835e-07,6.12960017477392e-07,0.000388848611944864,0.000232563311518005,0.0229626736508456,0.010463190395504,0.00693749160032256,0.0869700290987582,0.032198795407991,0.00237700461376475,0.00018672851715319,0.000198969379656729,0.00843896692783493,0.00628715091815613,0.0779603595405702,0.0430603645589008,2
0.00363139093880301,0.0143000489070815,0.0213377285734963,0.00106876388947956,0.000721765727754078,8.81115902589486e-05,0.0315155348902763,0.00898106221780566,0.0262980682442757,0.0277752426941959,1.32089122846556e-05,0.000204193055136806,0.000457571946058926,1.14729403244577e-06,5.23332565223843e-07,7.54640155592039e-09,0.000997773948879468,8.1053886429575e-05,0.000690079829013103,0.000774084016828422,0.00278748400177036,0.0109167384051383,0.0150505172965677,0.000770314610310231,0.000420656394353542,4.87869412557939e-05,0.0233848468911314,0.00684157789397913,0.0166676718662405,0.0157391596819476,2.63290586510219e-05,0.000407653287870603,0.000910581833681656,2.28378686250114e-06,1.03182560378515e-06,1.52722556226189e-08,0.00198601365614524,0.000161305829804465,0.00137818958127427,0.00154161178683532,0.00269100189250677,0.0133377576215769,0.011367864946053,0.00109335794847428,0.000220450259475721,7.2402503976227e-05,0.0200518577384054,0.00650680875673747,0.0244249579567089,0.020561320343794,2
0.00179471402572808,0.00230970503619256,0.00263585783925598,0.000237574466901959,0.000561216568721197,0.000229776855913067,0.00272739455322905,0.00669204105492607,0.00182976302617298,0.00114033403080071,3.23622375749914e-06,5.25620659809142e-06,6.92977330674497e-06,5.66505924750697e-08,3.16383550627465e-07,5.30549230531923e-08,7.36363676859609e-06,4.50034642602345e-05,3.35846762634377e-06,1.30674497467743e-06,0.00116264905300896,0.00160407981366179,0.00180591396076225,9.34546983702747e-05,0.000292336945364955,5.10286828176492e-05,0.00202552078573787,0.00529710972766498,0.00127392610520586,0.000817456558379098,6.44080781158432e-06,1.05645448947109e-05,1.38425088475985e-05,1.12540635817272e-07,6.25299589092743e-07,1.05306181407606e-07,1.47640479653839e-05,8.94787491354741e-05,6.68950712351099e-06,2.60013775455712e-06,0.000695233483448211,0.00256492940340161,0.00266977388069371,5.66736567828965e-05,0.000178816292935818,3.64239724776898e-05,0.00288549613578949,0.00365323484181608,0.00203195804599335,0.00094348480554909,0
0.00164815970532239,0.000119908466161958,0.000842163576826033,1.35197370264885e-05,0.000630105223614201,2.73790541579237e-05,0.00191827644903485,0.00728959105271921,0.000343173631245268,0.00119633980846364,2.72475305130222e-06,1.40804029170065e-08,7.12778084947806e-07,1.83100401274568e-10,3.99018212515515e-07,7.46770550542033e-10,3.6965715727562e-06,5.34015146966604e-05,1.18272442841439e-07,1.43841839590868e-06,0.00104245968840662,8.40600938909979e-05,0.000533982126766659,9.61753670393122e-06,0.000319336468770561,1.9946868611533e-05,0.00109258696420915,0.00569392043781429,0.000170284272804411,0.000720721960344233,5.42428386366741e-06,2.83878993274727e-08,1.41415633093973e-06,3.64959634571317e-10,7.92902984335056e-07,1.49261956932653e-09,7.35770024267772e-06,0.000106262778396256,2.34384928101929e-07,2.86222514104231e-06,0.000737942814939626,0.000132971936851773,0.000250272949975386,1.53416818534808e-05,0.00021817593810993,2.83399697455544e-05,0.000790413185438744,0.00414418394081668,0.000137995147368231,0.000454402376676447,0
0.00623151252567414,0.0714093705170034,0.0115653531066079,0.000223059245063088,0.000710012669956224,1.91719793845641e-06,0.0109307497388437,0.00816359426304564,0.0551608012107744,0.0611227301042915,3.90268276878175e-05,0.00510501756560115,0.000134133818890752,4.99701458943223e-08,5.06582182576391e-07,3.64169564225354e-12,0.00012007460997835,6.69791301522369e-05,0.00304151093605958,0.0037475834856492,0.00423868011233484,0.0534592307080659,0.00694277328222223,3.21852915122537e-05,0.000382813692750959,1.31951237031811e-06,0.00800617375838778,0.00665446404005086,0.0412655675527472,0.0494614634131421,7.76597857094548e-05,0.0101785064562839,0.000267219823047671,9.92122023577805e-08,9.97726065647479e-07,7.29900870923408e-12,0.000238950153738765,0.000133284995568209,0.00606891440720568,0.00746474251674522,0.00429424244090355,0.0492041738748785,0.00571735834827924,3.55543301328697e-05,0.000200752135262214,2.12598889911113e-06,0.00725599338840097,0.00572681522311872,0.0379895515308512,0.0315982331337069,2
0.00334062132818008,0.0650259137011867,0.00786284262533025,0.000235022560149985,0.000645546426236905,0.000325783149570004,0.0118159253368268,0.00911270742092245,0.040867351480948,0.0490203235828208,1.11977453522414e-05,0.00423375115840558,6.20152932339658e-05,5.54593659467657e-08,4.18815433322628e-07,1.06667890730941e-07,0.000140311275465905,8.34162795012573e-05,0.00166653121227064,0.00240844929450539,0.00238033237504699,0.0432021898811818,0.00545392944736233,7.56155021623911e-05,0.000342941395646878,0.000109906434657535,0.0074428268855085,0.00728167794034174,0.030619861113743,0.033437083715337,2.23004598127394e-05,0.00844093396711223,0.000123518752887152,1.10146316356428e-07,8.32566416424165e-07,2.1118165743996e-07,0.000279222038413046,0.000166039610073642,0.00332826324336088,0.0047993408557737,0.00217993796276202,0.0370673531589639,0.00436415273216485,5.30930280141858e-05,0.000229386013613391,6.86885050108761e-05,0.00596519554606231,0.00560651743124889,0.0378988162443315,0.0350029628430807,2
0.00210461553262028,0.00282131648998325,0.00147851412678189,4.61447046551206e-05,0.000470795820096777,3.12362775334167e-05,0.00203104948333107,0.0090311660081496,0.00378117304775543,0.00105693936275316,4.44953895727351e-06,7.79328630835684e-06,2.16723645823323e-06,2.13801862564488e-09,2.22679633323168e-07,9.80594845072059e-10,4.09858695368483e-06,8.18565986625384e-05,1.40517931266314e-05,1.11079944762203e-06,0.00131290812674935,0.00195867348342664,0.00106026902920363,3.16413811310884e-05,0.000260300315817814,2.28595718622785e-05,0.00143963599739032,0.00748281108311766,0.00264371807101358,0.00081021488955419,8.85447667357061e-06,1.57140303813987e-05,4.33807520836909e-06,4.2563604246065e-09,4.42167817354173e-07,1.95133966473633e-09,8.2023279354773e-06,0.000163008844689052,2.82785740906926e-05,2.22234707794729e-06,0.00103437910943766,0.00308969039061756,0.00151813219189063,3.42974751690252e-05,0.000121937336062483,3.39300838403412e-05,0.00160672408286201,0.00603219957291075,0.00420521816400081,0.0012431620460062,0
0.00144358442795621,0.000137389280481949,0.000612038981993748,0.000321725285023815,0.000912138598229351,0.000222930372017536,0.0011706038297229,0.00692644567586412,0.000300674312929285,0.000859427918198931,2.09134804097134e-06,1.84120516820208e-08,3.76350814143829e-07,1.04026129287834e-07,8.36139154564737e-07,4.99030649411253e-08,1.37481883752977e-06,4.81658133342533e-05,8.98319769974065e-08,7.42321065928468e-07,0.000757236108810529,9.74618434301663e-05,0.000336929861176337,8.5773072679659e-05,0.000568272329067267,3.23374283004283e-05,0.000757941569300635,0.00568337110436266,0.000168558330669986,0.000503185709236587,4.16206323503025e-06,3.71957796598005e-08,7.48820673252171e-07,2.05891089725382e-07,1.66367295499073e-06,9.9068411136485e-08,2.73798474725057e-06,9.58994911108713e-05,1.79494904795709e-07,1.47694681878229e-06,0.000548396118723866,0.000152425765427621,0.000195215507884106,6.87240262745143e-05,0.000300871169458255,3.48743055654831e-05,0.000433495447251319,0.00451755681936561,0.000208005191154146,0.000321606481236985,0
0.00682734792206899,0.0909252516020653,0.00457980862459214,3.40845171013691e-05,0.000750188256873542,6.19961074822696e-05,0.00461413015023091,0.00844300209054403,0.0604121928116038,0.0673900865568748,4.67000166035663e-05,0.00830825880392136,2.10616153284756e-05,1.16564213950053e-09,5.65526038634946e-07,3.81768934163027e-09,2.13938810795638e-05,7.16169273991017e-05,0.00366796914332295,0.00455741422393949,0.00495794792415014,0.0652886186807388,0.00272077409614605,2.51831290601978e-05,0.000451773695539204,3.79279829992598e-05,0.0030782108296229,0.00654930705482123,0.0412454793424512,0.0515780059241363,9.30766869273639e-05,0.0165339436893563,4.1926471039009e-05,2.3215138677317e-09,1.11174560224843e-06,7.64208708446203e-09,4.25620118421877e-05,0.000142526142017455,0.00729909543412983,0.00907578068161161,0.00589388895822764,0.059836186550116,0.00251771609672577,3.67570934111693e-05,0.000226990781310305,4.80686525126544e-05,0.0023149439986453,0.00551530852236392,0.0306126138943393,0.0494721223060584,2
0.00488730308922915,0.0657650263533434,0.00110924489238484,0.000231093113387595,0.000518426561406983,0.00023130657758334,0.00378592645708368,0.00910833852658055,0.0318336091104231,0.0260161102612887,2.39527007888936e-05,0.00434552641530797,1.21741726885696e-06,5.36709478069405e-08,2.70065282375647e-07,5.37714538125627e-08,1.44051506205194e-05,8.33606878337814e-05,0.00101845068842987,0.000674230242335821,0.00310845526101617,0.0431781664600341,0.000802289946094623,6.34954969602094e-05,0.000249747284999311,6.86833618866737e-05,0.00268106221284595,0.00670893678520638,0.0216175898704823,0.0205845974105887,4.77161428469382e-05,0.00864866558666083,2.43745092369537e-06,1.06532773374944e-07,5.34915870084659e-07,1.06729891988575e-07,2.86458207671156e-05,0.000165903698668918,0.00202663599028073,0.00134766159690777,0.00321085984458067,0.0513075580477434,0.00110989040199448,3.61801621117455e-05,0.000158099816714802,3.38859517842957e-05,0.00194237789779257,0.00500804457234689,0.0225735434754287,0.0311326653611859,2
0.00166249188226943,0.00187482327866486,0.000805111380519682,0.000396171051577623,0.000511421580300753,0.000230241926855032,0.00182660109353144,0.00659048108495841,0.00118725553879496,0.00267499051005118,2.76872836263264e-06,3.45681036089911e-06,6.51213849392298e-07,1.57699668159373e-07,2.62861274708407e-07,5.32764166727843e-08,3.34810936825861e-06,4.36438714000257e-05,1.38108050329328e-06,7.17359110651151e-06,0.00113484793823667,0.00134998134614483,0.000468188628244697,0.000152808392332904,0.00023514393487445,5.56315173343161e-05,0.00113665819831736,0.00532104119067279,0.000857613470142756,0.00195715214996144,5.51250173296677e-06,6.95441963485076e-06,1.29371058359801e-06,3.13594926896997e-07,5.20602368661945e-07,1.0575186194834e-07,6.66690542465865e-06,8.68454714505015e-05,2.78348693413914e-06,1.42795137853632e-05,0.000781437989643119,0.00207486087152276,0.000275613110086789,9.82224779673234e-05,0.000159285470343165,3.81908870544992e-05,0.000737062958075077,0.00396344764809618,0.00130243413688475,0.00290068584866469,0
0.00120905196329552,9.7234719596496e-05,0.000754345030370148,5.67821300912016e-05,0.00074761742469899,0.000327898912736504,0.00123189824836783,0.00621989142493181,7.82045878730402e-05,0.000366630921894803,1.46764682586106e-06,9.34120991077461e-09,5.71692254548032e-07,3.18602288358142e-09,5.61735316225578e-07,1.08047619502407e-07,1.5248907210208e-06,3.88678871982308e-05,5.84649659754497e-09,1.34407971799291e-07,0.00065603961298351,7.05597429836023e-05,0.000454366591257926,3.48859352643324e-05,0.000422006116431626,0.000129498220225111,0.000732034947855066,0.00498236948749305,4.27040877845175e-05,0.000184947735154271,2.91521664320157e-06,1.87488207626477e-08,1.13535088845812e-06,6.39417497827129e-09,1.11761314065e-06,2.13904301242628e-07,3.02835037982631e-06,7.73596380927207e-05,1.19331980857645e-08,2.68150241026512e-07,0.000527214995107166,0.000107716306068443,0.000223171125259916,4.12662431818639e-05,0.000258988795163903,6.86170700259076e-05,0.00047212131546196,0.00484826421766346,4.95736826046055e-05,0.000130014919475485,0
0.00519087475700446,0.0835072925623471,0.00528036132710348,0.000326807166049654,0.000713610013113215,1.75042822169926e-05,0.00613613607355343,0.00668563968657906,0.0328856312276962,0.0484425498233015,2.70756609352574e-05,0.00699745791223221,2.80182548373203e-05,1.07339564940388e-07,5.11790387446749e-07,3.01445585487697e-10,3.78085788132443e-05,4.48737837671827e-05,0.00108646341119841,0.00235846071432972,0.0024355152067158,0.0509146190467436,0.00224813896053107,0.000119801485631523,0.000382428179313035,1.22752556625442e-05,0.00415925513805657,0.00512673181540095,0.0190391471223965,0.0329737848058608,5.38786739243807e-05,0.0139359385166848,5.57600987377285e-05,2.13605786753606e-07,1.01742105258996e-06,6.06335812252938e-10,7.52621490298119e-05,8.93386150471037e-05,0.00216232862960308,0.00469310940597577,0.00219972520605306,0.0581535020093825,0.00218143466752037,6.65156650518721e-05,0.000194805629205481,1.9586002309694e-05,0.00339441801909184,0.00468980065381037,0.0140413586295575,0.0211136302459414,2
0.00729535987716346,0.0739999765536497,0.00322243918749444,0.000228515655411804,0.00068118302819605,1.00945020124796e-06,0.00443205772450603,0.0076173595766975,0.0401939461813884,0.0225591807050746,5.34632498026414e-05,0.0054798122850168,1.04325628248629e-05,5.2470327190136e-08,4.66336675657781e-07,1.00832080786562e-12,1.97318295689379e-05,5.83134267339482e-05,0.00162229202881682,0.000511305837950513,0.00555974132010302,0.0554848581685421,0.00215637507523677,5.21268032029385e-05,0.000387575779839768,6.9484610705836e-07,0.00343705677821173,0.00622280607455484,0.0299738986258985,0.0183232143906966,0.000106414001871298,0.0109282758700648,2.07645142419807e-05,1.0415734502841e-07,9.25599929064666e-07,2.02223622789692e-12,3.92714218932738e-05,0.000116043243342509,0.00322960610660512,0.00101766263463215,0.00643823174524114,0.0684017422178137,0.00213476461521157,3.61703566581775e-05,0.000197507466384251,1.11860187471935e-06,0.00414433407159914,0.00450337161483449,0.0261887796545004,0.0153869355358125,2
0.00119563224901697,0.00886096599503206,0.000837285830073359,0.000235415767992659,0.000736348392210951,5.27330180125473e-08,0.000769668411329408,0.00548690142173409,0.00311964299087301,0.00336132889178008,1.43418870268541e-06,7.67614218104014e-05,7.04569534941904e-07,5.56813559322708e-08,5.44867226833199e-07,2.73526950552859e-15,5.92762497442175e-07,3.01840672832464e-05,9.53543299808288e-06,1.11060497692379e-05,0.000794647844047553,0.006374320841152,0.00052306935202229,8.72605234625196e-05,0.000420505433468376,3.6602785169955e-08,0.000502698581627316,0.00438562521295202,0.00224186678243729,0.00269755125548844,2.85550320815017e-06,0.000154894230829512,1.40209417325694e-06,1.10557284987375e-07,1.08140497460701e-06,5.50231045003356e-15,1.18217798356757e-06,6.01381411602511e-05,1.92198613977468e-05,2.23460044267465e-05,0.000589188331255107,0.0099341852612537,0.000247159902754505,5.36278935103296e-05,0.000227058319876842,5.84470660393372e-08,0.000448507089483397,0.00291193923009392,0.00330524218194803,0.00294179686928994,2
0.00127015484125502,0.000468726114895033,0.000636274459525288,0.000401394644298998,0.000579520407518459,0.000227689941637408,0.000752319539916949,0.00693071940831328,0.000753657372634004,0.00269372050437277,1.62128472113819e-06,2.15219989520968e-07,4.06670026556626e-07,1.61926373298014e-07,3.37524322481537e-07,5.20938755038615e-08,5.68801546895595e-07,4.82056050759995e-05,5.69121061434481e-07,7.29251467748049e-06,0.000768783404852935,0.00033699368251328,0.000315655968205717,0.000172992851434643,0.000330534144055765,4.06817256241565e-05,0.000430506185235206,0.00533584811987841,0.000306760421341699,0.00208631944621985,3.22647158201267e-06,4.33845751580736e-07,8.08111827092607e-07,3.19750217578939e-07,6.70275217178575e-07,1.03412657638789e-07,1.13167145505695e-06,9.59989945129124e-05,1.13425872768234e-06,1.45069981656668e-05,0.000564650775113551,0.000519767080250105,0.000211086115958493,9.96915914032319e-05,0.000166958387081374,3.72756946826272e-05,0.000270772245288251,0.00424363118706743,0.000205273365729622,0.00165793966051677,0
0.0076599052797048,0.0751218262537923,0.00551122290390154,0.000231443928420281,0.000775566432776963,0.000328740464057513,0.00470680781567352,0.00875251549883879,0.0455614459435915,0.0468122479813893,5.86284123123286e-05,0.0056710273958165,3.05223446778967e-05,5.38342293762541e-08,6.04524423250975e-07,1.08610355473139e-07,2.22517250874698e-05,7.64205998633698e-05,0.0020858848213382,0.00219879434762016,0.00380292933262947,0.0424394536933089,0.00317347101985373,7.11918794707785e-05,0.000436389661457274,0.000133075891752052,0.00247968324614238,0.00667654102252505,0.0258398186448684,0.0244161539614004,0.000117009266756984,0.0112854159757923,6.07430562417249e-05,1.06857094066655e-07,1.20188657479176e-06,2.14994600219371e-07,4.42781562592865e-05,0.000152644935875426,0.00415120978967477,0.0043791415616935,0.0041974786422154,0.0444363585565834,0.00261331190608455,3.64556994093021e-05,0.000234678102206866,6.95790138514562e-05,0.00228672266931107,0.00472403664034464,0.0214358602314695,0.0211258617220619,2
0.00913806639348641,0.1286163355093,0.0110505751826706,0.000326726571243722,0.000721900191133997,0.000233231265965951,0.00830271903410834,0.00819008765212864,0.0716155901154878,0.0690253791080786,8.37576878063701e-05,0.016620391178436,0.000122637008717972,1.07277435695422e-07,5.23747269423582e-07,5.46655753924485e-08,6.92378739615432e-05,6.70086008471902e-05,0.005152124748844,0.00477783049127727,0.00708318952674444,0.103810772889754,0.00853924915878213,0.00011958532846632,0.000403532480853524,8.04106623616694e-05,0.00577519369792174,0.00645272041493307,0.0586276622919818,0.0526154536242384,0.000166832531488374,0.0330793543471108,0.000244138260890671,2.12377584838216e-07,1.03787284580232e-06,1.08518609630599e-07,0.000137825792735667,0.000133745390630006,0.0102549247491169,0.00951844283069549,0.00632937027151603,0.107314806220873,0.00660564918561189,6.7407426795726e-05,0.000234608419588111,4.65330196146698e-05,0.00538908428684868,0.00530369039345299,0.0569615607968267,0.0494019199917451,2
0.00227606894042186,0.0166274243505912,0.00497981880991313,0.000328509928434971,0.000561862717368448,0.000322177696819652,0.001725955486937,0.00610057347723506,0.0127404200241947,0.00855093124324656,5.16675629328452e-06,0.000269752531279984,2.47883835494241e-05,1.08454468279954e-07,3.17273894837852e-07,1.04319158328593e-07,2.98787293501878e-06,3.72437297200859e-05,0.000158705485054867,7.18732678040222e-05,0.00163015040175928,0.0117275781099057,0.00270748652157285,0.000125554143373745,0.000270265434003943,0.000121965952756433,0.00118915078225819,0.00493143243173568,0.00901164484105105,0.00617451887285268,1.0320681356567e-05,0.000544874971899808,4.94611859978661e-05,2.15830957271389e-07,6.21414515213199e-07,2.07596027646115e-07,5.94932435443362e-06,7.42730019873176e-05,0.000320230252882348,0.0001446309405283,0.00126557871770495,0.0184891581442472,0.00319929481656938,6.71364800876472e-05,0.000190272001952821,6.88048500733415e-05,0.00107557180070382,0.00276620299882069,0.0139366693164763,0.00955920175566212,2
0.00153026517768316,0.000858585609481241,0.00317480009086622,6.92748532750468e-06,0.00060518103598696,1.06450002800016e-05,0.000450601784665,0.00660426945463432,0.00850057671977045,0.00107013346663116,2.35243935431663e-06,7.18807544411721e-07,1.01022667049219e-05,4.80986773183414e-11,3.68083091395012e-07,1.11090377062892e-10,2.03840312486605e-07,4.38316942390922e-05,7.22172821156254e-05,1.13390724546148e-06,0.000895214715544303,0.000610807548536824,0.000860962980776175,4.92892252674022e-06,0.000316878059908972,7.54695482060504e-06,0.000222913674355358,0.00526211589799057,0.00357872957890418,0.00074107736383256,4.67383734049024e-06,1.45238234546017e-06,2.0130352932901e-05,9.58447708627358e-11,7.32204345096494e-07,2.23850131465835e-10,4.0553210720416e-07,8.72287399780546e-05,0.000144110453217908,2.2734212974403e-06,0.000649212709285599,0.000952771765334972,0.0011789515253947,7.36863469725897e-06,0.000179232878816422,1.19276640559562e-05,0.000237679367376076,0.00468811349397881,0.00299508418979997,0.000668506658092637,0
0.0031882989501401,0.023250216167606,0.00281674724276111,0.000516499606017894,0.000683916375038667,5.62489227953818e-07,0.000907421093560718,0.00724372927268009,0.0221998059048867,0.0102533173681646,1.01899443590505e-05,0.000540699555559763,7.94418289254618e-06,2.68112398451956e-07,4.70071861892341e-07,3.08667658184443e-13,8.27367406600916e-07,5.25766731142754e-05,0.00049494690834229,0.000105343986666719,0.00158173659367171,0.00708896984878439,0.00178358301729843,0.000245141897597725,0.000352480248451365,3.98902996966067e-07,0.000489926421721867,0.00591842640046593,0.0104917516086006,0.00378304818786542,2.03004301667348e-05,0.00107846754532075,1.58345159056748e-05,5.33248195577698e-07,9.33022431149886e-07,6.23517916093196e-13,1.64413051392437e-06,0.000104777836188917,0.000985110876462917,0.000209897975415824,0.00121215152930302,0.0102018066876812,0.0019535908761998,0.000159058007425756,0.000189033974931335,6.24069317381804e-07,0.000310004305388775,0.00331967040562331,0.00830716444002548,0.00356608507959443,2
0.018013544477063,0.138282040399916,0.0179873106667744,0.000880653588862325,0.000554315743216637,0.000722458498929981,0.0101421662549441,0.00864722147495364,0.0694749691986668,0.0882060037250825,0.000326097660580707,0.0192053009130838,0.000325166075464765,7.79447258305273e-07,3.08806238005305e-07,5.24435702349107e-07,0.000103295612014046,7.51341932711423e-05,0.00485016552443489,0.00779771957806203,0.0147147012644173,0.113505648744831,0.0138614690102538,0.000434501053043585,0.000276149160851493,0.000315680529613531,0.00742005120902394,0.00728077282381711,0.0568340537666641,0.0679140822916215,0.000648947299589952,0.0382298301178218,0.000647075692227195,1.55110061635052e-06,6.1342833836046e-07,1.04349707773635e-06,0.000205642493776856,0.000149532935642992,0.0096524152322677,0.0155364352868911,0.0108499077876359,0.0826122238479687,0.0106888911578083,0.000373639540694033,0.000156695061169283,0.000206085383279189,0.00688909837271225,0.00453164368589822,0.035532308281484,0.0691726991771527,2
0.00455434135880108,0.0400275398476001,0.0182317131247589,0.000344077867068006,0.000555572103554677,9.6334512064589e-05,0.00404019729370467,0.0134645708478673,0.0197587162106678,0.05938250973238,2.08459865966775e-05,0.00160725003837772,0.00033405347963067,1.18982353460484e-07,3.10089653305413e-07,9.20855042756786e-09,1.63443322914875e-05,0.000182189777479282,0.000391158646831918,0.00352954590569677,0.00281238184528354,0.0299154311010069,0.011835160264989,0.000162650822023989,0.000266200536107046,6.97382443449001e-05,0.00281296502668593,0.00982864993550985,0.0108307630692262,0.0442927798159163,4.14777524421187e-05,0.00320141429270754,0.000664756322066688,2.35733081097802e-07,6.16094990458136e-07,1.84427143535665e-08,3.25788011480847e-05,0.000362571536959941,0.000779596890314627,0.00703813336240983,0.00286482772970695,0.0381959662098829,0.00799994974590044,0.00016275037661496,0.000161457347572693,0.000110840557086021,0.00446296911751162,0.00635689720055672,0.0113928453298382,0.067244202680352,2
0.000776812893773058,0.00286887716398586,0.00126515018088838,0.000209450110836755,0.000681108396661101,0.000228491479890072,0.000582558738579645,0.00556337735631146,0.00231899491752121,0.00419502367590172,6.06404150374565e-07,8.22168272495848e-06,1.5816316324072e-06,4.40577071352161e-08,4.66166233922474e-07,5.24664877768272e-08,3.38440679334627e-07,3.11026658684683e-05,5.39693934973038e-06,1.75990148070814e-05,0.000461228618209888,0.00210282212191855,0.000939409127944408,5.69091597213449e-05,0.000401486677070193,4.84013375711948e-05,0.000401226183403905,0.00439836734154189,0.0015832560687246,0.00307169379356193,1.20680848136097e-06,1.64108582772695e-05,3.1637940783275e-06,8.72958174334571e-08,9.25273740058368e-07,1.04128019602416e-07,6.74924843198718e-07,6.18972035468448e-05,1.07345625675191e-05,3.51090634860576e-05,0.000342216594685476,0.00316496856415188,0.00110729654177617,4.88970633626835e-05,0.000230125263695291,3.70022116358641e-05,0.000438955324900471,0.00271948115317679,0.000901494986003903,0.00458716096815721,0
0.00138579327585355,0.000379736622945086,0.000604884292229802,0.000255358958222626,0.000683462093949628,3.71069406241996e-05,0.000234386612405182,0.0066913487011402,0.0030070122762307,0.000749271396247908,1.9291786285052e-06,1.44907463811257e-07,3.67634690784292e-07,6.54989562180043e-08,4.69454322814129e-07,1.37433238891363e-09,5.51875468033399e-08,4.49753537328761e-05,9.08654648238383e-06,5.63528763986617e-07,0.000918171159094765,0.000204136353500384,0.000301522118483827,9.67013420120386e-05,0.000369666938953298,2.53245366476901e-05,8.44017407725179e-05,0.00554281157829866,0.00210033609830949,0.000432011945858146,3.83971284790719e-06,2.88380181491475e-07,7.29270410029588e-07,1.30001394440595e-07,9.33946601692049e-07,2.74429916670545e-09,1.0957689234895e-07,8.9510506059911e-05,1.80824863796019e-05,1.12175800478395e-06,0.000535577777630397,0.000205566358959023,0.000196360316318777,7.21420084436031e-05,0.000211228323514649,3.04810374048877e-05,5.40941863655135e-05,0.00363824366931329,0.00212878613870466,0.000268350285198995,0
0.0277529285042884,0.133241287906898,0.061998818002913,0.00166805796785583,0.000893081488509923,0.00238057075506758,0.0118258695093599,0.0241916702623862,0.138633980471582,0.103965153428088,0.00077409494068734,0.0178392337468744,0.00386316912618932,2.79403325247075e-06,8.01595387673026e-07,5.68344818656861e-06,0.000140147889770803,0.000587879868634719,0.0193114672091814,0.0108230512211281,0.0182789117512977,0.0889189388965108,0.0414825426265312,0.000728087264831105,0.000557726456557003,0.000954931518930558,0.00734978897624336,0.0174953933100818,0.0976853284111598,0.0663520698656294,0.00154042138103795,0.0355030223180286,0.00768770427767425,5.56154850037557e-06,1.59078793114384e-06,1.13221480426914e-05,0.000279288354966685,0.00117015938339547,0.0384342811927492,0.0215775675184721,0.0213694667225525,0.099905133360773,0.0500992134496644,0.000600194334371801,0.000308359999449057,0.00122163536946687,0.00829244003429852,0.0157308819583337,0.107935604629111,0.079335497109503,2
0.00997803937768501,0.0637026199796181,0.0306488691486691,0.000561725183074455,0.000717656566818899,0.000818214960469529,0.0154370154820081,0.0197785830525706,0.0786026707095612,0.0741677053470672,0.000100054825052736,0.00407349668927369,0.000944040058981727,3.15067141577234e-07,5.17617956264709e-07,6.62091247471326e-07,0.000239283416856348,0.000392791727558242,0.00620938366717301,0.00550309518025244,0.00717294244826324,0.0382178514597446,0.0230597512569997,0.000340168610884092,0.000395729449369137,0.000610191364567558,0.0112023612339217,0.0160194238480386,0.0619408655516863,0.0516650923262301,0.000199112740995461,0.00811068060826126,0.0018784337003424,6.28804996424679e-07,1.02600866465276e-06,1.32825644187864e-06,0.000476361765871695,0.000782015330286851,0.0123556190965682,0.0109762743425142,0.00632493266060576,0.0302722261955336,0.0168108821204206,0.000402704085226632,0.000235305065238258,0.000944330423645151,0.00971375244402805,0.0139042186629455,0.0427802714728675,0.0708484792470159,2
0.000941214516478347,0.00255841762354935,0.00275502382692861,0.00040154196576441,0.00064363952904891,0.000237688172508528,0.00163391652797438,0.00979682561965723,0.0168371584591262,0.00781635345040519,8.86211798235569e-07,6.42422372558627e-06,7.59959757555561e-06,1.62044429989639e-07,4.16336209705627e-07,5.6769757169688e-08,2.65846973950858e-06,9.64549974204412e-05,0.00027945721550479,5.98935474419331e-05,0.000575086678460536,0.0018776192516686,0.00198942742581762,0.000167675616152962,0.000340586619805442,9.03089145205486e-05,0.00115019193145785,0.00805374376967437,0.0107924312013627,0.0055268848063109,1.76744035670018e-06,1.29373562785156e-05,1.51441149385198e-05,3.1997709541833e-07,8.27269312658465e-07,1.1268909839943e-07,5.31361422755307e-06,0.000191943358090536,0.000561526907607631,0.000120688989061788,0.000454536640810915,0.00291404018827559,0.00279740364241064,0.000100052475454562,0.000182627013536879,5.83100247708607e-05,0.00172924195246817,0.00703372300626713,0.0170391921970206,0.00871203500004749,0
0.00203761288669027,0.000364496739965674,0.000612536172348903,0.000321846547146013,0.000559135035362845,0.00023277389132915,0.000516517632450237,0.00781376230356865,0.00301681306558377,0.000944585886107069,4.16938074958772e-06,1.32829818938927e-07,3.76930172573316e-07,1.04103848143654e-07,3.14197182198394e-07,5.44168407581589e-08,2.68034937606876e-07,6.12450012319587e-05,9.14548651407547e-06,8.9077608852484e-07,0.00126312931513893,0.000204677958438913,0.000358866723959752,9.90977962230644e-05,0.000267731044495655,7.66263647640434e-05,0.000251922510648972,0.00590988791722186,0.00216329987259039,0.000655978237843911,8.29602568056243e-06,2.63910066049833e-07,7.49984604683789e-07,2.06055654635333e-07,6.20826522416348e-07,1.08055255814705e-07,5.33193127693891e-07,0.000121975475191356,1.8194477230018e-05,1.77830534870149e-06,0.000745761613515328,0.000172603719624983,0.000195944378994568,6.67818709997901e-05,0.000164011684798927,4.19717627700122e-05,0.000164079469988572,0.0048985027922522,0.001647202185609,0.000583310584253929,0
0.0107756949558721,0.104192098151521,0.0233582086852673,0.000327802281336787,0.000603787122350955,0.000231696110938511,0.00447775703385755,0.00849034620994658,0.0616667363559433,0.0519609126838145,0.000116254841749892,0.0108535311652444,0.000547366765665187,1.0799313284635e-07,3.66297057341593e-07,5.39453348706092e-08,2.01124680469057e-05,7.23388736265369e-05,0.0038149315769837,0.00271034584327401,0.00598605380297036,0.0683435349293322,0.0164716506753299,0.000126231612953772,0.000297933323025326,7.10904824366521e-05,0.00269260919241658,0.00688794509824391,0.041799279100927,0.0340171709891365,0.000231787567961998,0.0216552202428959,0.00109019335665327,2.1490750114624e-07,7.28745493500258e-07,1.07087149829176e-07,4.00615467549375e-05,0.000144062020673984,0.00759856711269797,0.00539671788383764,0.00513529270652034,0.0514347676012723,0.0136822814471446,6.71952012346408e-05,0.000179622230166049,3.70505420631215e-05,0.00203859104447339,0.00517334785164844,0.0386315302824305,0.0206415428634914,2
0.00738668954246835,0.0996162647695113,0.0147318293057433,0.000329280650649142,0.000606153620481129,1.46231143414338e-05,0.00199621841996741,0.00916538783100477,0.0371596480321699,0.0296896710967036,5.45907105245806e-05,0.00989373026127682,0.000217386352491506,1.08968441740094e-07,3.69161689204187e-07,2.1486721778233e-10,3.95988012655879e-06,8.42483368017064e-05,0.00137974897078602,0.000882213941665176,0.0055744615495012,0.0771315229177281,0.0115567633270492,0.000124857748210035,0.000333958415661872,1.06424575198222e-05,0.00148321571112017,0.00765041555543793,0.0282112819961338,0.02347152237111,0.000108871954142335,0.0197676547538208,0.000433326133120224,2.15727904887438e-07,7.32201282732045e-07,4.27615343426322e-10,7.924910143483e-06,0.000167810233443138,0.00275362694476292,0.00175927552094111,0.00616839308975491,0.0917011943632118,0.0117055967590672,6.84904001912478e-05,0.000187042738179295,1.61936229341433e-05,0.00174439211270033,0.00514373080287528,0.0308450409870607,0.0331778614172878,2
0.00208175868414607,0.00947188361936333,0.0047890438478587,0.000324475096743035,0.000607785276944762,8.34027004973135e-07,0.00102991377073766,0.00696488749921236,0.00403779657809815,0.00319963014183404,4.34518558459946e-06,8.84626599265952e-05,2.30200775976146e-05,1.0578859686863e-07,3.7125116244479e-07,6.96556730572906e-13,1.06256310260418e-06,4.87006235215197e-05,1.63581835045279e-05,1.02148505808223e-05,0.0014905958459875,0.00690533001726368,0.00289877249780976,0.000107736584980118,0.000312763140473051,6.00127688556798e-07,0.000642917412366827,0.00556970409734924,0.00283397584298881,0.00243683921668699,8.65713120838899e-06,0.000177733392731977,4.58396155323505e-05,2.09434101565599e-07,7.38497735037647e-07,1.388634506585e-12,2.11499706103434e-06,9.69656728538181e-05,3.25773354680663e-05,2.04007679654451e-05,0.0011057144628097,0.0105930702962281,0.00216490594182225,6.83314246998829e-05,0.000192327048833747,9.22589571156409e-07,0.000399130398764307,0.00373678163973765,0.00218631375570888,0.00231611513600903,0
0.00127601775392444,0.00049406597612453,0.000770169363961165,0.000400119700144111,0.0005595958123852,0.000231358832564368,0.00301584876049249,0.00714789600531963,0.00195087854321097,0.0029562502935443,1.63631410740767e-06,2.42033940814209e-07,5.94610334550672e-07,1.60863986638666e-07,3.14721075484909e-07,5.37958749795767e-08,9.13969427780495e-06,5.13348785858446e-05,3.82378956314145e-06,8.76952631840272e-06,0.000822996331805233,0.00035906780102212,0.000504453447312266,0.000165246076257487,0.000260268767652384,6.79098323329193e-05,0.00218419055676174,0.00604193626545851,0.00118584606436825,0.00160288826510415,3.25614794863604e-06,4.84915941908609e-07,1.18453744780351e-06,3.19884461160302e-07,6.21906591916409e-07,1.06778962925629e-07,1.81892620492524e-05,0.000102166934796097,7.60791659314791e-06,1.74650223245475e-05,0.000553912683130159,0.00054738467639551,0.000420876207190185,9.83248335366287e-05,0.000161443692210028,3.55151642329032e-05,0.00170442019439517,0.00454851379393025,0.000792662511101326,0.00153630050744083,0
0.00744871506365509,0.0707965405484571,0.0144548065383489,0.000228765158488964,0.000507097060093859,4.29645179011032e-06,0.00792750869546825,0.0084571247760184,0.0602013769492788,0.0468969387018318,5.56928083971474e-05,0.0050336707727504,0.00020951856822219,5.25908725114899e-08,2.58432298992216e-07,1.85416929873205e-11,6.31527280220484e-05,7.18494735650711e-05,0.00364151131014515,0.00220815660792053,0.00412081536700877,0.0428265391014984,0.00650624657557812,5.19421836020372e-05,0.000232710149521881,3.01798109361253e-06,0.00452321980518319,0.00703812947762681,0.0329483344189762,0.0288397331607081,0.000110880866926424,0.0100203805329325,0.000417404864480033,1.04393053205419e-07,5.1401540835886e-07,3.69073372441786e-11,0.000125682225591219,0.000143011332063289,0.00724750017690208,0.00439619493554621,0.00443747905202031,0.0381063056224101,0.00635888451599197,3.68331304861992e-05,0.000150015697663912,4.78028602680629e-06,0.00478355746339311,0.00742753464239478,0.0328283924600422,0.0312715122216478,2
0.00702681804838532,0.0702255942294341,0.0132933817280986,0.00023268559307757,0.00059872944198424,2.38568109828081e-07,0.00429881161782004,0.00918132371659468,0.0265670307389905,0.059050572132462,4.95779271457907e-05,0.00495587301575136,0.000177056095094255,5.43788870496534e-08,3.60277519288855e-07,5.69914734802585e-14,1.85702013313523e-05,8.45323355218725e-05,0.000708254505130633,0.00350292112004257,0.00510550810192033,0.0577864941722262,0.0105138154906708,7.44835200405395e-05,0.00031891913554381,1.64509884735938e-07,0.00303623719082774,0.00728613270409577,0.0188887621607636,0.0379699793264464,9.8705554717044e-05,0.0098626462383362,0.000352880766530024,1.07962469572592e-07,7.14420187237859e-07,1.13617942531213e-13,3.69515004536805e-05,0.000168405277469735,0.00141052033395757,0.00697220305527729,0.00372081918103964,0.0458489777166229,0.011634635274174,4.03925707284925e-05,0.000198711712515905,2.63828085582258e-07,0.00299251735759253,0.00649595760898409,0.014939670133066,0.0370383160937569,2
0.00118157698530216,0.0129983323812129,0.00110846520308722,0.00051126975647372,0.000391776903463172,1.28252361892692e-08,0.000525990975911276,0.00697911199851059,0.00366642227234143,0.00440978730804835,1.4024762933023e-06,0.000168636692891833,1.23054519863365e-06,2.62639829396288e-07,1.54258861048847e-07,1.6390781726897e-16,2.77058599797515e-07,4.8724451494831e-05,1.34965148365706e-05,1.94945431790744e-05,0.000896336542096892,0.00917424728752089,0.000822874542123473,0.000271279549913102,0.000157032051726619,8.79688411158854e-09,0.000332453040510952,0.00567234404836375,0.00267028855874884,0.00327197184612938,2.77226567994589e-06,0.000336743490713545,2.44763890863037e-06,5.22439758158948e-07,3.06682504964069e-07,3.27567134265097e-16,5.52334136932734e-07,9.71804777935388e-05,2.68716524909238e-05,3.88432915552437e-05,0.000972786787366279,0.0147519727339549,0.000968862705534565,0.000144536553050671,9.41662715925072e-05,1.41918937982037e-08,0.000291254392895739,0.00474379239829959,0.00415000691248895,0.00501614754085207,2
0.00175770455290282,0.000754689692397791,0.000770759603719342,0.000325244303818638,0.000609730804601552,6.80443526618763e-10,0.000725880848940827,0.00733638718794537,0.00273338916650789,0.0018508924895576,3.10502291737501e-06,5.64545912164157e-07,5.96990315067096e-07,1.06268033328614e-07,3.73626338000919e-07,4.58705756234621e-19,5.28994067314486e-07,5.40905716434221e-05,7.5061790714306e-06,3.4423714008278e-06,0.00116754810735545,0.000518408612576289,0.000428480226965788,0.000114801317513785,0.000301641972125312,4.67560899704019e-10,0.000358001045239321,0.00583133270267432,0.00159191819239574,0.00116497137790086,6.17876676886872e-06,1.1312592074431e-06,1.18702711863834e-06,2.10402463333326e-07,7.43216044331026e-07,9.19399447393428e-19,1.05296519509626e-06,0.000107598678565273,1.49399941554386e-05,6.84644651082571e-06,0.000940238847220931,0.000835654181533248,0.000249806969184301,6.66653767984934e-05,0.000195417849155189,7.53501396846327e-10,0.000248484443569211,0.004909300352344,0.00124333362216636,0.0008302657629038,0
0.00442662916783923,0.0429948183561265,0.00215901041610978,0.000397881393795906,0.000641476607465994,3.55902549830823e-11,0.00495042727220201,0.00773548656695301,0.040231205522441,0.0452518763361009,1.9389852715643e-05,0.00184738608201058,4.68467620510939e-06,1.59092821135801e-07,4.13559962544622e-07,1.24746697194401e-21,2.46167461613468e-05,6.01016733258855e-05,0.00161692011803692,0.00205255331183177,0.00238032690485176,0.0224464487915336,0.00105957564806943,0.000150455005611332,0.000354832662263271,2.46449233215942e-11,0.00287056399038663,0.0064714539102498,0.0248197241585188,0.0268769095062174,3.88879464098599e-05,0.0036857499961725,9.31311097125874e-06,3.16325468219417e-07,8.21922362196479e-07,2.50786798169091e-21,4.89905484929511e-05,0.000119637974583021,0.00322738446196001,0.004089361359854,0.00245862918985992,0.0195912748653358,0.00112897881236637,9.80755319966783e-05,0.000208534961231779,3.94407999383789e-11,0.00303085230600014,0.00476012040407883,0.0155095014694603,0.0262044778353564,2
0.00787353646481996,0.0958273835688645,0.0170252139752822,0.00179184468592866,0.000647818695311199,0.000215670141063496,0.00636240429061709,0.00730415526220941,0.0480706055482941,0.0864068863866645,6.19062338008232e-05,0.00920851586832237,0.000290922005791946,3.22512604258262e-06,4.21772256448999e-07,4.67472694832609e-08,4.06800462413092e-05,5.35670591913553e-05,0.00231732927438675,0.00749319453898828,0.00575196552517536,0.0737175004043733,0.0105711100776648,0.000798248716732135,0.00037030264900035,2.48594120815551e-05,0.00489051530476253,0.00567625477678754,0.0369575930615389,0.0649949083556961,0.000123582507642773,0.0183451895178562,0.000579324186534304,6.41941777772756e-06,8.39332012769731e-07,9.28159275391031e-08,8.09567463958287e-05,0.000106629626402605,0.00461629851460052,0.0149217757088453,0.00373543918015885,0.0701091802515918,0.00837041965307725,0.000606758913177303,0.000196481962305003,3.84936263234987e-05,0.00324994516096019,0.0050606729629712,0.0286956645446758,0.0711865597932931,2
0.00635534074677439,0.00983705164826014,0.00442792600507211,0.000372508659927753,0.000400628552134005,8.37979298563595e-05,0.00631287912535826,0.00829061045237162,0.00576523545556855,0.00482955771020577,4.0587040620659e-05,9.58060760468242e-05,1.93774938099834e-05,1.37923457767243e-07,1.61309394278545e-07,7.05696482745961e-09,4.00267198791952e-05,6.89695642360161e-05,3.27269863182406e-05,2.27164418613257e-05,0.00389145462857722,0.00689270990569511,0.0032763784407062,0.000233395936201664,0.000161716062852273,4.39856022972125e-05,0.00443780910465419,0.0065832289974978,0.0043148375797965,0.00393755574591093,8.0769032799947e-05,0.000192088603778031,3.88868836815324e-05,2.757057669872e-07,3.18512140354826e-07,1.40395237546521e-08,7.96600787997279e-05,0.000137353840392999,6.5786538082814e-05,4.59270952466527e-05,0.00330483366951603,0.0104333035489818,0.00506757101032474,0.000349840961943402,9.98905353425526e-05,3.85576286865469e-05,0.00310101599276257,0.00536424659861323,0.00594749259563383,0.00539156541446948,2
0.00311350549923752,0.000615735802509469,0.000647409191142924,0.00023270258504652,0.000398856200755646,0.000321310492304722,0.00181926071459241,0.00721307931506913,0.00167342245999154,0.00201596496308125,9.73885758429287e-06,3.72329181689983e-07,4.1973796937914e-07,5.44061210168453e-08,1.5979201021033e-07,1.03754594640966e-07,3.31720378619125e-06,5.22819203930463e-05,2.81440857928038e-06,4.08313129585224e-06,0.00190239408237859,0.000439090062329097,0.000400902571847975,7.55736665757829e-05,0.000175853830360417,0.000111477000910557,0.00135110908216243,0.00585037206424794,0.000899637334553053,0.0012962452407066,1.93840747758553e-05,7.49367511221617e-07,8.32547024827117e-07,1.08011810754067e-07,3.15593416578378e-07,2.06476221223103e-07,6.61026222015211e-06,0.000104039243541596,5.60067922792358e-06,8.12456054389854e-06,0.00152538500519331,0.000643964441125212,0.000358970246665949,3.8509250190523e-05,9.83206150425333e-05,7.38097369291399e-05,0.0016511908554374,0.00476317263063732,0.00086132871815751,0.000983824890015847,0
0.00158194745852523,0.0133781938661725,0.000606850396182274,0.000325511916840529,0.000781742608187328,2.28913617901061e-05,0.000676598592972969,0.00860964346763428,0.00292834673366593,0.00336708100831055,2.51335039729003e-06,0.000179643193116288,3.70067653178863e-07,1.06489564717841e-07,6.14175179569913e-07,5.23887323155774e-10,4.60070036141559e-07,7.43734728562194e-05,8.61820598625056e-06,1.1385434915405e-05,0.00107942346302877,0.00495656992286202,0.000307717711147576,0.000113392630081705,0.000446071644256672,1.6187972476244e-05,0.000409192051902612,0.00705526728495069,0.00206177297342035,0.00173208764796372,4.99888457660753e-06,0.000357720662544264,7.3625019524489e-07,2.11915047588911e-07,1.22222578590967e-06,1.04525935577822e-09,9.14596709728163e-07,0.000148095314092629,1.71469456523292e-05,2.26597496387039e-05,0.000580232817907137,0.00559270213412518,0.000201580386080167,7.01678810756587e-05,0.000205645112634411,2.58874363553135e-05,0.00029093693123337,0.00644464045965756,0.00121514764842215,0.00173687508770037,3
0.0126023595574714,0.0800050815546813,0.026419809406078,0.00209468143933726,0.0039351056239339,0.000230961248232917,0.00742009878723796,0.0173600853474874,0.0646151449652987,0.0414033387168364,0.000159615987152008,0.00642834487525637,0.000700707964039682,4.40955474369265e-06,1.55605053097231e-05,5.36108497844328e-08,5.53127445821204e-05,0.000302824134557488,0.00418154783478973,0.00172170566339474,0.0098446711676018,0.0616835170489677,0.0196762429563967,0.00123372573366175,0.00260209030280239,6.08128987585966e-05,0.00585586139910702,0.0141246464301647,0.0514009328872325,0.0314114209269428,0.00031761722159178,0.0127969604880515,0.00139520565984055,8.77230928948481e-06,3.0965877412791e-05,1.06405847932512e-07,0.000110081655734796,0.000602678931035438,0.0083352275983975,0.00342730721706174,0.0100758076688356,0.0487353795793434,0.0144730583479772,0.000814443242692492,0.00229915890409879,3.74377459904369e-05,0.0060388369635347,0.0106882092387568,0.0306190527258564,0.0282752012706035,3
0.0109636014328686,0.0590309036925527,0.0441171305044503,0.000887619238193811,0.00107261320342639,0.00135076653044173,0.10018673966329,0.0340899142659378,0.0886356856248638,0.0202066087686869,0.00012076448938543,0.00350069566208456,0.00195490674574785,7.91806722999821e-07,1.15435128614604e-06,1.83373578473602e-06,0.0100809363182759,0.00116701518603891,0.00788392382329372,0.000409439758501129,0.00803745060257868,0.0444966733629071,0.0264428951130601,0.000400497270795345,0.000771675595965301,0.000518119694618711,0.0518630935546912,0.0213931607837255,0.0708900364994058,0.0145342256404639,0.000240346691246083,0.00696777010427032,0.00389143438775935,1.57542454276881e-06,2.29896562428825e-06,3.6487248033055e-06,0.0200665602156608,0.00232325008520317,0.0157006447973886,0.000815698349268381,0.00689684052835778,0.0386358951032841,0.0202441641593674,0.000283046016871405,0.0010601698282599,0.000484146428623373,0.0551494535472336,0.0195265895697948,0.0407366296066007,0.00988829744956353,3
0.0045371598755414,0.018560737901467,0.0283468403149286,0.000381367187182345,0.000610900578084992,0.000339596580777172,0.0430497891451409,0.0185204293360531,0.043740717977824,0.0143461741980616,2.06766109460365e-05,0.000343725640463727,0.000807580329201114,1.46139124871908e-07,3.75058832149788e-07,1.15873963778693e-07,0.0018575165356217,0.000344443630837336,0.00192256559624464,0.000206841828425537,0.00319090622479707,0.0121453016555481,0.0184744688975755,0.000215719350108071,0.000328246801817411,0.000253338803197808,0.0246019306310983,0.0135556911107715,0.0287470327855025,0.0112881957175126,4.11579174408614e-05,0.000686507277699281,0.0016070606126985,2.89959133024694e-07,7.4613731813036e-07,2.30610510172512e-07,0.00370066990561551,0.000685682934643485,0.00382620156240781,0.000411619573178258,0.00306591478133004,0.0126030134726023,0.0169149510660899,0.000178491953255487,0.000183205389584773,0.000332293508892415,0.025257583007727,0.0121322519033845,0.023114549662625,0.00961170807683788,0
0.00217381550947017,0.000932314797740364,0.00482867752326653,7.77690231504725e-05,0.000462180599409402,0.000232159101456128,0.00605946164547785,0.00912758021397824,0.00911156185333735,0.00755935470435785,4.74909385288503e-06,8.49746003798366e-07,2.33890143669841e-05,6.05998172481672e-09,2.14658205436741e-07,5.41571158241059e-08,3.68620877132002e-05,8.37298990089909e-05,8.34363202267265e-05,5.74140068529636e-05,0.00151670835372129,0.000665605083831414,0.00306630376698378,5.29928489430798e-05,0.00021883043525006,7.50368236374321e-05,0.00441506940438972,0.00759457482231382,0.00565790934891272,0.00584745767300176,9.45071989042672e-06,1.71470605577485e-06,4.65881939957868e-05,1.20772623362591e-08,4.27195807269404e-07,1.07511911882307e-07,7.33772039662481e-05,0.000166616313757083,0.000166033184537447,0.000114270043965617,0.00100142222194737,0.00104355037432162,0.00351299293055264,6.69874219486311e-05,0.000126628659741943,3.86124357869166e-05,0.00247114192320257,0.00635716867460019,0.00440812711500669,0.00319990794578878,0
0.0102595637614905,0.0703429359654133,0.0344272725732734,0.0207642051981392,0.00370669681848242,1.47557025525632e-05,0.0129156391204766,0.0160273702153077,0.0569642936122759,0.0178132829247021,0.000105125782028552,0.00497133993557025,0.0011908171590963,0.000433234074669681,1.38020578301058e-05,2.17801322093388e-10,0.000167636514243337,0.000258114896544266,0.00325992797914284,0.000318632983990253,0.00678275103881893,0.0443864828179889,0.0260791130933969,0.0151864333374672,0.00216558425504685,1.09463560163826e-05,0.00928787087342177,0.0131211185247465,0.0452444809195193,0.0145128286533904,0.000209854250719144,0.00989440069253024,0.00237003905183303,0.000862195232203943,2.7472027739981e-05,4.34433079788219e-10,0.000333574431981388,0.000513700475992812,0.00648832830804005,0.000634352837171158,0.00639247734587521,0.0448901801991067,0.0159667968614613,0.0120606003534304,0.00190360135412018,1.65999502193309e-05,0.00722137184510606,0.0116310364966797,0.0260330605662595,0.00895498565193734,3
0.0142244842983421,0.0440511139491864,0.0411428245897965,0.0191348719919135,0.0012063770122289,0.000398851163163736,0.016807960383391,0.0140823503585235,0.0567829225344545,0.0161813886324582,0.000202614349653425,0.00194910718752806,0.00169896255014836,0.000367904290885549,1.45543779101119e-06,1.59877753548689e-07,0.000283866549986566,0.000198372743388787,0.00323890562178649,0.000261056213916299,0.0117404098109921,0.0312103733705132,0.0331934500238071,0.015298098729365,0.000820792918073291,0.000160790491971024,0.0129045579382631,0.0111176023925219,0.0449204200025193,0.0106164109460317,0.000403937146610555,0.00387978797619014,0.00338267794771405,0.000732196559161425,2.90346002634182e-06,3.156944144795e-07,0.000564933680264437,0.00039569312798625,0.00644698047886599,0.000521588219543411,0.0102064593055977,0.0292209924133245,0.0236015794541456,0.010544094423107,0.00104326693386712,9.61205264044605e-05,0.0092696434975646,0.00721534120101274,0.0326420833555525,0.0083580914963018,3
0.00952166699511641,0.00297191681844478,0.0230573354544035,0.0145871805508931,0.00040507823523133,0.00203250122834824,0.0718148232963963,0.0227476482355365,0.021496041159365,0.0158175557840622,9.1083915881906e-05,8.8312554763025e-06,0.000533792182222341,0.000213653739250623,1.64907147996643e-07,4.1515678623147e-06,0.00518315209125883,0.000519580635397022,0.000464399947098678,0.000250550656161609,0.00692260619832856,0.00206776832700626,0.0180152334464301,0.00959391183563335,0.000160821961436826,0.00101883116310075,0.0514635669697972,0.0181393497457542,0.0125319935169689,0.0107850954473017,0.00018129050874809,1.76187577892714e-05,0.00106272088059093,0.000425357382402115,3.27825680273259e-07,8.26158018962825e-06,0.0103144965633246,0.00103443107079318,0.000924132028784115,0.000499487884234964,0.00671017000450199,0.0031277573200621,0.0113379320061799,0.00848204945964625,0.0001029745622945,0.000644997926509031,0.0476385345883928,0.0164806659223936,0.00985774788466946,0.0110623636669375,0
0.00334504155202272,0.000135767033817215,0.0165157961367967,0.00135686541987834,0.000719776398748003,0.000252921798887342,0.00909443309689344,0.0115348740873834,0.036239391985271,0.00478182379592994,1.12134815672362e-05,1.83922182129566e-08,0.000274078873270753,1.83675370335266e-06,5.20647483045474e-07,6.40098760172637e-08,8.25466056653657e-05,0.000133549952616616,0.00131985131929053,2.28810394596272e-05,0.00217555690036371,9.83054176903423e-05,0.0125052259087861,0.00103535417659147,0.000405424783627467,0.000111961695699069,0.00699353438141157,0.00972492652372629,0.0280681967701646,0.00395721801333624,2.23455339961866e-05,3.67320158032298e-08,0.000545478903550283,3.66777655776564e-06,1.03612230394731e-06,1.27373015212838e-07,0.00016482066852815,0.000265899860493635,0.0026265449882266,4.56233241582676e-05,0.00149327985278898,0.000150241054026724,0.0109003522609488,0.00152971332880443,0.000239874739101694,0.000104785069493017,0.00652353646269378,0.00644865237055656,0.0246031007988222,0.00273448113199108,0
0.00591620375818445,0.0553494838620882,0.0194380147271607,0.00900072083835107,0.000851226501563059,8.73176875605467e-06,0.00269034695744214,0.0132772225794904,0.0487834115191308,0.00638356091267693,3.51765162286463e-05,0.00307470578504087,0.000379264167833968,8.13900987082527e-05,7.27923843837838e-07,7.53055828518145e-11,7.25272916408312e-06,0.000177109525035283,0.00239022100082427,4.07796416891533e-05,0.00456928493419037,0.029696398375178,0.0125178235634785,0.0056849500244458,0.000393912314662451,6.37734479297131e-06,0.00188269824258603,0.00995117919354035,0.0336109039301263,0.00492709612618363,7.00006537678136e-05,0.00612281749247437,0.00075519143759156,0.00016198939490346,1.44887049998493e-06,1.51170987447129e-10,1.44457333371031e-05,0.000352495503577683,0.00475787037642022,8.12913048271037e-05,0.00416264528942535,0.0281479021691559,0.0101793547291703,0.00443543256725339,0.000287140067428464,9.75740666738964e-06,0.00114567747950189,0.00761739612907734,0.0228205820188375,0.00375905315781893,3
0.0107282772300871,0.0386146471145088,0.0333001874802306,0.0192813752208514,0.000692033903591797,0.000229832727333022,0.00592008474840891,0.0102252446256208,0.0418395582197649,0.00999689977778232,0.000115413006435128,0.00149406393243581,0.00111439808482931,0.00037363947588518,4.80887253257444e-07,5.30767133132606e-08,3.52230902151828e-05,0.000104992771773345,0.00175931882134151,9.95971590765535e-05,0.00886526797181859,0.022093640505164,0.026476411358383,0.0154333699701553,0.000417661830411929,5.08394445664625e-05,0.00479212551598508,0.00813405385266393,0.0335758046963145,0.00822539980186666,0.00022993162270576,0.00297767841319393,0.00221772623122012,0.000743515042405797,9.57070587110499e-07,1.05359948092981e-07,7.00915927937511e-05,0.000209010012021732,0.00350104773609269,0.000198933401244379,0.00773048629042495,0.024241265456611,0.0226042134071444,0.00964809036067417,0.000247204961293992,3.58231666815622e-05,0.00375513403452384,0.00754693842783587,0.022258198273854,0.00665405529282283,3
0.00760087495530437,0.00151182126100859,0.0343565069695456,0.0218866806754142,0.000764624378630024,2.68341308550272e-05,0.031486895463172,0.0142416376561784,0.0402913385127139,0.00852738629431202,5.7847284261147e-05,2.29476606321186e-06,0.00118628723155428,0.000481338202612037,5.87507759422575e-07,7.12125379214327e-10,0.000996384712441174,0.000203842003090599,0.00162783897785005,7.29042824119997e-05,0.00591754496415511,0.000890803172267416,0.0277276134592907,0.0179152091103723,0.000456710970391197,1.93434984989457e-05,0.0196277928164191,0.0110575041398816,0.0332979936343669,0.00696114380369312,0.000115331335426034,4.56837566471193e-06,0.00236071839811715,0.000957957843730426,1.16803001347127e-06,1.42863441408234e-09,0.00198281999170251,0.000405616363960931,0.00324308955701361,0.000145246248830414,0.00398462488801717,0.0010317143136992,0.0253858273226027,0.0120532131522041,0.000216336849527133,2.94086868171871e-05,0.0145952913632813,0.00833093222532605,0.0242932371908819,0.00495000446175725,0
0.00242901531423683,9.21831979487708e-05,0.00381106285202339,0.00420123296486206,0.000600992528686019,1.68889882801113e-06,0.0306231224480989,0.0103867654636985,0.008216139560394,0.00670416291261918,5.91903722675094e-06,8.34365156341188e-09,1.40909446542942e-05,1.74895188548148e-05,3.62728830448083e-07,2.86068342914237e-12,0.000942480567746068,0.00010823987913191,6.6833975459165e-05,4.51535173775403e-05,0.00154839946912979,6.48322890301631e-05,0.00296365411256869,0.0023655882722581,0.000365760138279576,1.17082833041853e-06,0.0230866792675615,0.00842872232151149,0.00455766688333689,0.00524550249496988,1.17891932444028e-05,1.67995691047684e-08,2.85226369269389e-05,3.50486059562482e-05,7.17799914477593e-07,5.69858482442268e-12,0.00187554104234592,0.000215571745367322,0.000133983700630266,8.98726775850918e-05,0.00113143468774443,0.000102869137652481,0.00281532021080296,0.0015752333306342,0.000197651966712816,1.86956205439282e-06,0.0249271056846453,0.00575527183211256,0.00526670409425601,0.00432634547578202,0
0.00253607437801793,4.8195238856012e-06,0.00789667910526297,0.00839503508998343,0.000769850976271244,9.15648838448536e-08,0.00577599493036094,0.0121692342947743,0.0153860879453902,0.00525940528472089,6.44408529000876e-06,2.26829375258366e-11,6.26385038261584e-05,7.06237737878589e-05,5.95206066708444e-07,8.37207820123339e-15,3.35203229658743e-05,0.00014841556491493,0.000237512657751288,2.77845652664545e-05,0.00173847879016356,3.40685052279049e-06,0.00384545423163813,0.00406832581713666,0.000438428273320932,6.28847975786896e-08,0.00467770925695992,0.00973999191088462,0.00884289541429611,0.00417798637893297,1.28432659049837e-05,4.57972448015632e-11,0.000124659929130657,0.000140732313433362,1.18488830100755e-06,1.6713908456497e-14,6.67112830395735e-05,0.000295763682653953,0.000472978032333279,5.53068034556838e-05,0.000964659455043871,5.34644403971818e-06,0.00321384849513108,0.00391515770214181,0.000248913553251835,1.01295086649417e-07,0.0038002380238366,0.00773439843507362,0.00737690962882437,0.00279728204695518,3
0.00701150023078131,0.00483656851360568,0.0276905903868542,0.0184561228393568,0.00107423662500566,0.000231036878814052,0.0133038732711354,0.0176034635062024,0.046978248107174,0.0130460501036589,4.93366033028859e-05,2.34525778967323e-05,0.000770250580936925,0.000342335889984802,1.15939249420257e-06,5.36437913914704e-08,0.000177002576716138,0.000310967224599679,0.00221793123062498,0.000171015858833944,0.00558255573499018,0.0016564628098966,0.0224460397710113,0.0147373104438579,0.000628129147526837,6.09527280966606e-05,0.00921598309213282,0.0146777296914496,0.0379277202276682,0.0108304407940685,9.82478784235445e-05,4.67263675174201e-05,0.00153313416296817,0.000681250176235012,2.3074249351319e-06,1.06479809156319e-07,0.000353109896577837,0.000619294242885194,0.00441379718272771,0.000340357945618763,0.00411908791675571,0.00187575291350909,0.0163041511640369,0.0104392616097164,0.000312024902320624,3.65774426559212e-05,0.00715126547349111,0.0126050877715028,0.0251462585308787,0.00821179680068142,3
0.00975169772058081,0.00203257163200905,0.0496356532880946,0.0172164950635073,0.000663919493995112,0.00223799924781165,0.101523207284799,0.0293517874233171,0.069103928638137,0.013778949152734,9.55734057535327e-05,4.08755958339514e-06,0.00247446200101474,0.000297890292293361,4.42949535511283e-07,5.03340203542734e-06,0.0103545723620458,0.000865742389811594,0.00479674114370761,0.000190800647416754,0.00734523527119982,0.00141212392711708,0.0397114221694428,0.0134672632579678,0.000353194883040113,0.00119537941010404,0.0662554636763343,0.0218248253244972,0.0555464583186358,0.01124140447166,0.000190175984064731,8.19844713755444e-06,0.00492578776350436,0.000592750159184004,8.81033740318754e-07,1.00166675165608e-05,0.0206097012721764,0.00172290749880439,0.00954811008746497,0.0003797055423626,0.00549586914826473,0.0017286711589347,0.0276729999810505,0.0129808702148694,0.000179228486704297,0.000915168405004653,0.0478372487581799,0.0168313657845634,0.0479189336612418,0.00926064299669951,3
0.00277793785544308,0.000108461014844329,0.0157028006822633,0.00272303797593983,0.000581935443062013,0.000224054034795074,0.0220243249655866,0.012980826322626,0.0243369961091657,0.00505195122332544,7.75452932447414e-06,1.16259485294577e-08,0.000244405523215664,7.39103576311985e-06,3.40308537220252e-07,5.01580538993752e-08,0.000480983486282352,0.000168845112497367,0.00058931717839996,2.56475574747985e-05,0.00222088310287965,7.88198092664127e-05,0.0114159722524835,0.00196736040577951,0.000315695908007606,0.000157078069350474,0.016349204031866,0.0100738626825845,0.0182578996208882,0.00403200531622868,1.54301266212853e-05,2.33312715898705e-08,0.000489760770662289,1.47688181075478e-05,6.76309254154166e-07,1.00105210561532e-07,0.000963643178177297,0.000336502461032754,0.00117860289487091,5.10366470415145e-05,0.00144858145799054,0.000120342677174559,0.0181678731882763,0.00315679337510275,0.000171563182453512,0.000252404979157446,0.023184079962962,0.00876569929301077,0.0282390047246344,0.00350566602587364,0
0.00385507612095175,5.77712861314929e-06,0.00870099993849342,0.00193790295852105,0.000607143275968267,1.27638620075032e-05,0.00931478315038205,0.0128542386537613,0.00892420780508615,0.00689526228285256,1.49309164677028e-05,3.32470854745403e-11,7.54701907613909e-05,3.73438429827426e-06,3.70300283479807e-07,1.61878825994496e-10,8.69797882302233e-05,0.000166052611271217,7.92481103673032e-05,4.77753336230122e-05,0.00256498446524408,4.18764829315111e-06,0.00395952119507559,0.000520348384323657,0.000330481902675068,8.75632998621369e-06,0.00750216082576104,0.0105176689178194,0.00491297768417262,0.00552200899977546,2.9696477159653e-05,6.64545002800532e-11,0.000150787888732068,7.46904408982216e-06,7.36874172322913e-07,3.23978872468793e-10,0.00017330502415046,0.000330449925102872,0.0001584845933346,9.50074537091936e-05,0.0019008776884397,6.3929862245329e-06,0.00369859025090548,0.000527823154982003,0.00018505866325831,1.41292850628851e-05,0.00437145256253781,0.0087141093078988,0.00510268333902803,0.00449217405162592,3
0.0114083021807104,0.0557961054447535,0.0348415577581015,0.0192767087344547,0.00250039295344984,0.000173822941538805,0.0227522543351135,0.0197550311864447,0.0564542938703016,0.0119332398995196,0.000130781896702998,0.003125843406342,0.00121994892744631,0.000373455574086018,6.28334486940141e-06,3.02165834938169e-08,0.000520248999700569,0.000391903022204393,0.00320159068372974,0.000143114538222017,0.00861425394957713,0.0404244436465332,0.0268108082798226,0.0156518095094971,0.00149997157759922,1.27542268636976e-05,0.0180817453392495,0.0160398290184243,0.0460761584194861,0.00974763584070584,0.000260275495280222,0.00622338977783335,0.00242775584355243,0.000743172353072521,1.25013073145756e-05,6.01287512610549e-08,0.00103522773168848,0.000780198280164071,0.00637267002515187,0.000284706585155438,0.00628126369514086,0.0338234713478957,0.0182714089653034,0.00884529563178686,0.00103652999004848,2.46709243565354e-05,0.0127108962311918,0.0146765513991613,0.0374948201672312,0.00792550660761425,3
0.00825334967639538,0.0118329421830006,0.0461708281003787,0.0177026611935041,0.000764097361181627,0.000264316673029324,0.03791233383902,0.013831792025769,0.065742253638636,0.0134759686828259,6.84457737071868e-05,0.000138250977294663,0.00213913654513898,0.000314187940946368,5.86748824504142e-07,7.00664294159118e-08,0.00143880562088819,0.000192267190649373,0.00433626458335942,0.000182003362330231,0.00635386199848269,0.00883418589942963,0.0358904129346693,0.0140357483655798,0.000473041118641037,8.1294666786336e-05,0.0310667397500665,0.0111217546296852,0.0500423012691807,0.0106344481254621,0.000136205649831089,0.000277578028644311,0.00426018577821724,0.000625975562886242,1.16735205684057e-06,1.39224483481725e-07,0.00286894162433161,0.000382618221122751,0.00863648757654257,0.000362609135984196,0.00608499177886893,0.0137963907922142,0.0266229333095144,0.007898703462922,0.000249290668153537,6.12887035181103e-05,0.0284268749782592,0.0102015325288233,0.0412761130815145,0.00679662869615952,3
0.00406386862731516,0.000966125637352999,0.0352708563164713,0.0144695696553931,0.000716413770590234,8.3771587851795e-05,0.0197643532659949,0.0128844521064571,0.0369124565072707,0.00885199384906804,1.65966405909774e-05,9.14819444112839e-07,0.00124261492227643,0.000209543891265825,5.15819551473844e-07,7.05289104686295e-09,0.000388547256243746,0.000166775667603447,0.00135274085954476,7.83764585820243e-05,0.00300979346170763,0.000684954961228295,0.0266128083334093,0.0115998160391408,0.000392021719243972,4.47338584844611e-05,0.0149412332499431,0.0105152801605138,0.0298610841817436,0.00700595936309892,3.30286319292926e-05,1.84363964091365e-06,0.00248039562514218,0.00041781659481576,1.02206465158734e-06,1.40309873032005e-08,0.000777232875103583,0.000331944304897681,0.00270850429135883,0.000156319541839446,0.00186340864756557,0.00108564972647206,0.0180018876131544,0.00967049616938761,0.000208427529370443,3.77813679712214e-05,0.0212483110781238,0.00966805818289899,0.0249124905340622,0.00682097407558736,0
0.00380477617368509,5.19449204715686e-05,0.0370046266761239,0.0173099304367413,0.000744874252044532,0.000222212575380593,0.00370470759026517,0.0122761314996114,0.0368340966105589,0.0066223665162436,1.454790512371e-05,2.63416578067471e-09,0.00137503260508416,0.000301067305119354,5.57621978175588e-07,4.96256988560447e-08,1.36357589093711e-05,0.000150726236294026,0.00136331016687817,4.39936595650195e-05,0.00284934269570765,3.6753667923185e-05,0.0300331460985169,0.0144127842678811,0.000437450978941071,6.60692573707061e-05,0.00182905559681967,0.00987465133385025,0.0301762586380965,0.00539902521547027,2.89505463049592e-05,5.31926138396519e-09,0.0027374768266232,0.000599185291484768,1.10280658906637e-06,9.85023891384216e-08,2.72924384017861e-05,0.00030067476787859,0.00271324220220243,8.76294164233825e-05,0.00199423357559348,5.7634016142787e-05,0.0225943447567763,0.00893639293158102,0.000222688342521591,3.44460050757759e-05,0.00158289177340776,0.00589046887950792,0.019444051538557,0.00436527991597909,3
0.00745654890498336,0.0221651379292206,0.0328242908704559,0.0188370101154032,0.000736619114366987,0.000229542144923188,0.0104463728280886,0.0177988600957,0.0452846206963056,0.0107249382725579,5.58290075997334e-05,0.000493657410457757,0.00108243127564803,0.000356584775051054,5.45261139452575e-07,5.29532504853723e-08,0.000109652784725689,0.000318385274677753,0.00205963012040069,0.000115548290518555,0.00568732114431695,0.0143441056791726,0.025823939818911,0.015456095019409,0.000417610574974479,5.05313722707152e-05,0.00792663672139814,0.0141955006030132,0.0357089022934559,0.00838423527937551,0.000111149416443079,0.00098248232950117,0.0021544412518236,0.00070958623207459,1.08264124235905e-06,1.05110547457774e-07,0.000218228639389139,0.000633579262531342,0.00409998557164503,0.000229987621907349,0.00477711069665169,0.0126651211411321,0.0176140729646823,0.00859416428537883,0.000257286272170628,3.78574434179775e-05,0.00585712331068843,0.010051809538744,0.0210746584011431,0.00623593484965379,3
0.00781965020535207,0.00277930820653383,0.0241254738999925,0.0198863995848821,0.000757362333595307,0.000233538063699539,0.0118487781255314,0.017710913443286,0.0358069860122022,0.00817377267112679,6.14239481041881e-05,7.67132467946523e-06,0.000584622507349313,0.000397393604163463,5.76409690432911e-07,5.48084429581888e-08,0.000140763302744533,0.000314799764951904,0.00128650102287602,6.7129466416364e-05,0.00598391494454497,0.0019464935491581,0.0191364247785204,0.0160968167725604,0.000442889739718795,8.17237847741027e-05,0.00974343160242798,0.0147533459237933,0.0272534732584429,0.00635718157287038,0.00012224533247247,1.53575185977872e-05,0.00116341822881428,0.00079078888954258,1.14684023044238e-06,1.088085420401e-07,0.000280451220883385,0.000626900755413111,0.00256219748092501,0.000133601032463228,0.00737883379173765,0.00312497879071036,0.011371795846325,0.0113513082696266,0.000222051485318732,4.00398655820161e-05,0.00889658733530616,0.011775087967411,0.0227177383480139,0.00662852075086606,3
0.0048415570902068,0.000356018040394788,0.0504060118967914,0.00483607285908657,0.000603280710242092,7.99957638747079e-06,0.0181952937592646,0.0139240982896419,0.0225557305546521,0.0065894671725366,2.35476303082643e-05,1.27064974913399e-07,0.00255139457479714,2.32556379883011e-05,3.6574548507266e-07,6.37623064027678e-11,0.00033203435059521,0.000194190044852899,0.000511046835151297,4.3503616574655e-05,0.0034512487773981,0.000165908631486762,0.0322546531998942,0.00229655451560513,0.000319831254760098,5.87984723117737e-06,0.012923331667503,0.0110485130520419,0.0145450432524265,0.00522594494678896,4.68705671405472e-05,2.52040884525253e-07,0.00507935976931212,4.65218328215992e-05,7.2522442826813e-07,1.27434077920817e-10,0.000661415070834318,0.000387067694642803,0.00101724846876741,8.66999848826781e-05,0.00288645299217435,0.000147652159783626,0.0262631343043747,0.00315920518068045,0.000184264411036603,8.96393305683943e-06,0.0100529031219294,0.0104749869943517,0.0116057207334787,0.00418333417333107,0
0.00419940285020361,3.44362651122501e-05,0.0140294746799005,0.00816271282961483,0.000754978040585137,4.47609661618357e-07,0.0183565299195617,0.0120832255123867,0.0290772040388147,0.0279963186684812,1.76818051985319e-05,1.18189475028411e-09,0.00019737521918663,6.64784333396521e-05,5.7279739142023e-07,1.99657621703936e-13,0.000338100190804859,0.000146145707305051,0.000846303516846341,0.000785134585513081,0.0030069081984493,2.28059028621908e-05,0.00911296084414977,0.00287085223637284,0.000470025227004284,3.24409030192792e-07,0.010995699201757,0.00963351077622354,0.0148111717986798,0.0157367998201534,3.52247202309174e-05,2.36174601997431e-09,0.000393213276614112,0.000132775665377667,1.13751350323506e-06,3.99004197403616e-13,0.00067337185371891,0.000291415557788225,0.00168751695710757,0.00156494408491004,0.00206305994666689,2.67013230338314e-05,0.00959525572598498,0.00294228724797455,0.000208172889322805,4.95342732687827e-07,0.0102242942221811,0.0074425158052767,0.0138628321613127,0.0185342897782062,0
0.011009675403264,0.0276696264625111,0.0266211103542359,0.0196709727336011,0.00845496385780826,0.000436471542359969,0.0220992312370445,0.0161662747062914,0.0439750807740142,0.0299455099342146,0.000121519134812655,0.000769256446246107,0.000712150523379736,0.000387364018526149,7.18454649410045e-05,1.91428522893624e-07,0.000490775649359269,0.000262596449043282,0.00194087492827896,0.000898597003964732,0.00742251024912808,0.0172850175715853,0.0213238858960894,0.0158050752565176,0.004374713750315,0.000163432708548668,0.0176242781794865,0.0115314819214476,0.0352413585851818,0.0222558040898783,0.000242120384435673,0.001531016740503,0.00141725251957469,0.000772373270256311,0.000142960237486947,3.80978560572553e-07,0.00097669693069471,0.000522631504852049,0.00386479141276823,0.00179083723627283,0.0066213912843992,0.0158915676868371,0.0122618834042732,0.00984812484737192,0.00486802472702298,0.000110141606248051,0.0191334553088336,0.00927457268967001,0.0250107321051686,0.0247837556103105,3
0.0153883497511775,0.0092501745296245,0.0304414404060482,0.0181317207946594,0.00508753263250069,7.1144428687628e-05,0.018311327164515,0.0224153006463963,0.0584281176229203,0.0116158906514152,0.000237346455278888,8.58845395956705e-05,0.000931233942693019,0.000330149652551051,2.60042516708835e-05,5.06002149992056e-09,0.000334827464178426,0.000504923501602245,0.00343035833325563,0.000135599058258539,0.0120473897239287,0.00702870815308229,0.0242996378474692,0.0142262820473979,0.00403046791769687,5.30440271775788e-05,0.0145942432346148,0.0178301442557917,0.0450675881331596,0.00892044862064136,0.000472956176955332,0.00017102018271473,0.0018531218086787,0.000657258152806891,5.17536464123184e-05,1.00960299841827e-08,0.000668411879996685,0.00100484337299776,0.00682704685699614,0.000269844001437675,0.0159086018268801,0.00996890067689146,0.0156399820086597,0.00859142004923929,0.00490169521556796,7.86723623218919e-05,0.0103019559322914,0.0151655694447822,0.0547851516449017,0.00825701684530567,3
0.00697019051829642,0.000653058043647069,0.0226566767516846,0.0176618601279203,0.000688442231626856,4.59444865867554e-06,0.0317964470638541,0.0169394239783759,0.00751645942306923,0.0162382922964919,4.88067175000667e-05,4.16936186558401e-07,0.000515842796548429,0.000313507438725747,4.69619800594623e-07,2.05930733524437e-11,0.00101471570872658,0.000288276449463155,5.67475011049465e-05,0.000264701646588876,0.00490765337002326,0.000439527135977042,0.0182838664080535,0.0142258042810094,0.000486699384491584,3.27305267042807e-06,0.0251189435773887,0.0130975262519661,0.00535296205248586,0.0128912188971819,9.71362537436584e-05,8.41062119712588e-07,0.00102658839273895,0.000623880425589416,9.41223058746258e-07,4.15990355136418e-11,0.00202065171424305,0.000573666480581513,0.000112941070245158,0.000527000744866277,0.00413927851548144,0.000674723286282419,0.0114572085063417,0.00880517850364708,0.000574427023471722,5.09957681091525e-06,0.0272098667540312,0.012789834098148,0.00680534712281588,0.00868130936756088,0
0.00358584142219378,0.000229384517149849,0.0025392682179931,0.00228155669353053,0.000785848294913213,0.000399737431547413,0.0101956966158924,0.0113264324703577,0.000291367078770821,0.00477531618295078,1.29228693470827e-05,5.28335404066338e-08,6.39634467396936e-06,5.22952869294913e-06,6.20646048511224e-07,1.60581826081342e-07,0.000103946903260186,0.000128931730990873,8.05891158506737e-08,2.26625478091815e-05,0.00249355157446255,6.11349796173318e-05,0.0015159756881529,0.0010633825835115,0.000484952417061986,0.000165661686826754,0.00830397073857908,0.0091246470685674,0.000204337011626026,0.00352793269874509,2.57161322961393e-05,1.04890965420468e-07,1.28052377177367e-05,1.04074672649964e-05,1.23065882328489e-06,3.19301803554697e-07,0.000207355362772091,0.000256568149273795,1.65080345777218e-07,4.53512131389653e-05,0.00160937389241053,3.88088953750109e-05,0.00198429387399748,0.00152029463705933,0.000225541861311113,0.000103492227207471,0.00587215390913915,0.00688031352261996,0.000273216437793688,0.00280751180633108,0
0.00757602400015989,0.0330810617708323,0.0160190654899708,0.0103263208120462,0.00178165692437571,0.000234464948887692,0.0192108419065293,0.015691369846545,0.0253625447420482,0.00911940224239296,5.75532272651508e-05,0.00109474403392303,0.00025788592975415,0.000106973280946312,3.18057361446495e-06,5.52290055009263e-08,0.000370769080679822,0.000247440430624653,0.000645883773726949,8.35553657498448e-05,0.00525911776583859,0.0106211425555099,0.00740358721884138,0.00415332085624035,0.00055563257451453,8.59975276691069e-05,0.00920919385845446,0.0128481826225003,0.0117883889062212,0.00667063735676711,0.000114660290152618,0.00218361783202895,0.000513206306226045,0.000213067657012071,6.33449082316554e-06,1.09658237499263e-07,0.000737948385222306,0.000492417938157048,0.00128579455450427,0.000166298868919498,0.00454386219063875,0.0148894569702163,0.00848997162288958,0.00487789178905846,0.000479028058932114,5.53499940102564e-05,0.0087267042135361,0.0100387213430378,0.00989681366972614,0.00411552796894539,3
0.0145981221804875,0.0449392993684664,0.0291759206384484,0.0216725668882681,0.00615600627911046,0.000590845451741917,0.0282575114755675,0.0263500429603451,0.03471234681077,0.00972123265311526,0.000214119400099229,0.0020251552730605,0.00085548335716894,0.000471271001135274,3.80773787900431e-05,3.50843399693339e-07,0.00080247945496934,0.000697688839191371,0.00120864223293884,9.49762045563695e-05,0.0119234809619496,0.0248644576114336,0.023805307957497,0.0167147020526553,0.00463758613291339,0.000273692039613908,0.0203763180505821,0.020992369763525,0.025954159504882,0.00750446755009518,0.00042614870926375,0.00403455207208847,0.00170242080579073,0.000938614509121857,7.5782766394987e-05,6.97942826206095e-07,0.0015969348834774,0.00138851851144664,0.00240723173929798,0.000189003670354754,0.00932701331280676,0.027209751870091,0.0201889488538384,0.0126919231933872,0.00391331136698919,0.000161575396488697,0.026747499455828,0.0199132137645678,0.0185055937195396,0.00634272816400032,3
0.00580471805651797,0.00149320824814008,0.0134964544361004,0.0110183964953823,0.00112056836366969,2.9667721149422e-05,0.032872490009091,0.0211341773476478,0.0113772439725602,0.0311159405575213,3.38639176733976e-05,2.22404412927142e-06,0.00018303963632669,0.000121668393396803,1.26152259052165e-06,8.63534595690536e-10,0.00108531824319028,0.000448454024007237,0.000129534776610942,0.000973014329309877,0.00452475903071942,0.00108901769495604,0.00842337432405749,0.00730557367066876,0.000817109870527932,1.79057312722171e-05,0.0247722464228935,0.0159994765830312,0.00858063633165851,0.0196756019342048,6.73594655898399e-05,4.44249186805022e-06,0.000364233065251459,0.000242442217800259,2.51077241742781e-06,1.73931740420364e-09,0.00216048058505333,0.000892818959997767,0.000258328773494829,0.0019363478851451,0.00373417817659259,0.00166480624284825,0.00669039851145868,0.00626637630281601,0.000928558739220336,2.30696246887441e-05,0.0199401724264779,0.0136727788326272,0.0129511350159828,0.0156112812556123,0
