0.0109265336933777,0.000414252892123705,0.000697714039795807,0.000580092831533852,0.000606287609781719,0.000414252892123705,0.0183591981499848,0.0214817754638728,0.000414252892123705,0.00353235669003285,0.000119960253417509,1.72462943761156e-07,4.89247992953085e-07,3.38198293863554e-07,3.69414319723078e-07,1.72462943761156e-07,0.000338552833474473,0.000463029500415705,1.72462943761156e-07,1.25324407323068e-05,0.0087721299767068,0.000293836460463587,0.000425408692846498,0.000387752469356083,0.000361167517239816,0.000293836460463587,0.0121890494088647,0.017940229278,0.000293836460463587,0.00197274395650474,0.000238712409002895,3.43145944578918e-07,9.71932796658993e-07,6.69696390499977e-07,7.33475739065842e-07,3.43145944578918e-07,0.000673919118952968,0.000922114162231053,3.43145944578918e-07,2.49472759596067e-05,0.00792318837745429,0.000258831107183349,0.000327572562733699,0.000306477919441676,0.000260513130531871,0.000258831107183349,0.0104564459592155,0.01760236842033,0.000258831107183349,0.00148548173969459,0
0.0127746348173495,2.85285677898296e-05,0.000450433730432733,0.0003200273478985,0.000311536344665474,2.85285677898296e-05,0.0141245137378767,0.017477308137316,2.85285677898296e-05,0.000692707500728568,0.000164005714733747,8.13330144669747e-10,2.03873590871462e-07,1.02827654537711e-07,9.75041117569024e-08,8.13330144669747e-10,0.000200502692661219,0.000306840719974082,8.13330144669747e-10,4.76286327864233e-07,0.00922457715322959,2.06635337686722e-05,0.000193831832133528,9.90672230157355e-05,9.44878196824866e-05,2.06635337686722e-05,0.0103994629487628,0.0142998064112351,2.06635337686722e-05,0.000492123818846401,0.000326370463034409,1.6231000222149e-09,4.05743912548908e-07,2.03622175672073e-07,1.94064468476525e-07,1.6231000222149e-09,0.000399001379515185,0.000610757627371904,1.6231000222149e-09,9.53747197169552e-07,0.00805907753799386,3.16536895566341e-05,0.000130347983724308,6.65185779026656e-05,7.2476908335867e-05,3.16536895566341e-05,0.00956246318626025,0.0106585383292008,3.16536895566341e-05,0.000694110478293035,0
0.157797983260968,0.120953113477737,0.0548531868038992,0.0214765220152515,0.011271404438574,0.0113143900974519,0.205921847089767,0.038182233082879,0.134382860549276,0.102489084758008,0.0250249444655691,0.0146962676036707,0.00302379014326471,0.000463544997723715,0.000127522285090328,0.000128630239759167,0.0424592591316127,0.00146449338990493,0.0181380607526834,0.0105500489766372,0.0940652784582014,0.0830134787468456,0.0376084140401906,0.0150377939712987,0.00573094560742835,0.00705451958553014,0.143303493925011,0.0297099215017778,0.089955050004014,0.0735611307891017,0.0497956091489864,0.02925241528641,0.00601737283898161,0.000922437499425006,0.000253922599574147,0.000255969809604511,0.0846496554177484,0.00291490288684923,0.0361058587125965,0.0210000912852027,0.078642746283078,0.0675814942214074,0.0268899912311373,0.011208251036083,0.00579964178127018,0.00504036490704686,0.148206345667661,0.0182883057767095,0.0852537690484887,0.0759709951385861,1
0.319246106869454,0.181064748724097,0.113980588684395,0.047133297865492,0.0195564986543893,0.0169874438214103,0.172641345664678,0.248396273970843,0.111146354337675,0.11622872167619,0.102313037570752,0.0329443293154084,0.0130550676255973,0.00223260947895598,0.000383890645753433,0.000289739977182888,0.0299122577659468,0.0619974377455294,0.012401198587275,0.0135611273634405,0.271942045446455,0.152423841714643,0.0932477698507831,0.0378641753314749,0.0165871086699883,0.0135758881012808,0.147344550402029,0.187244847216499,0.094557760501475,0.0966855683698979,0.203709386939653,0.0655627760665562,0.025980225362604,0.00444293800751466,0.000764347308715267,0.000576862318989781,0.0595674281836729,0.123385809967824,0.0246911451007681,0.02700241712946,0.253390702224684,0.15756445810807,0.0952941647847048,0.0423941897928434,0.012938445188643,0.0146287466557992,0.167302610662765,0.15616157241667,0.0953960239815014,0.105366714854154,1
0.120510836971858,0.05286727838753,0.013355579753877,0.00827441147041542,0.00607783259989621,0.00596566737488239,0.116273292698553,0.0485006428130223,0.0193997784307302,0.0261504652414124,0.0144778082987029,0.00280892991036145,0.000178558379297814,6.87779446082699e-05,3.70597795725215e-05,3.56479536433266e-05,0.0135512549273824,0.00236006419447851,0.000378039402560913,0.0006848365496339,0.085908806031846,0.0384940156256822,0.0101833752628005,0.00639883492278436,0.00435144263333432,0.00438135690231462,0.0890836532613514,0.0379406811413244,0.0137356409359444,0.0206284567415429,0.0289277257235676,0.00558971766911623,0.000356036591870738,0.00013689763868631,7.38145291012658e-05,7.1058298712818e-05,0.027002770746991,0.00470048832230012,0.000752476165418601,0.00136524498622788,0.136433259881963,0.0606364332843014,0.0156555148554719,0.00901986592415818,0.00689063295156898,0.00671371261535351,0.101370758231124,0.0504375633075919,0.0214298644386543,0.0231299196413511,0
0.00717769741308564,0.00318536989113785,0.00104127529156664,0.000679524845438438,0.000725533296568473,0.000428356995013437,0.0109197801537459,0.0145798936247134,0.00105261049011219,0.00278456112977619,5.12901472766748e-05,1.01736770423543e-05,1.08754408028032e-06,4.63086933948495e-07,5.27396471501297e-07,1.84076717993532e-07,0.000119392388464997,0.000212824333526047,1.11231074166865e-06,7.77117052775001e-06,0.00513725776502411,0.00220334167123748,0.000771620952287692,0.000484242567177365,0.000468677679267801,0.000294752132200661,0.00889450633953066,0.0119030578646808,0.000731753029291719,0.00195126323522472,0.000102552822145461,2.0268768801874e-05,2.164732814456e-06,9.21679810588849e-07,1.0427439428316e-06,3.66451636412631e-07,0.000238037009333773,0.000424275175791395,2.21466721122122e-06,1.54843184176428e-05,0.00716778764788532,0.00352165313663336,0.00106210776468555,0.000687423922232017,0.000407073269916048,0.000410198643452473,0.0075023240668483,0.00873646946745282,0.00116358226179442,0.00311906885686964,0
0.207377719446563,0.158923123218795,0.0246582032351693,0.0133603666362871,0.00673210673060001,0.00843167108706862,0.106083258802119,0.138850920511896,0.0765696767052684,0.0884836353570605,0.04292856857695,0.025379225693032,0.00061089536996742,0.000179092408438382,4.5539361623112e-05,7.13716035016034e-05,0.0113049848710032,0.0193439211375315,0.00588546311648191,0.00776771758795613,0.127154631594866,0.0769820110119684,0.012664944100659,0.00662339626233737,0.00344359026378885,0.00491235248504148,0.0736827119509167,0.0678344536332683,0.0430035172737854,0.0561979184719408,0.085718773511729,0.0505051960650354,0.00121493416965023,0.000356606135563268,9.06057168569579e-05,0.000142107784858065,0.0225010087591296,0.03852507627805,0.0117189511593338,0.0155575341525566,0.100006103369804,0.0850945414673278,0.00846415152479461,0.00678148016206465,0.0030072325944198,0.00430214482147732,0.056518719831952,0.063769222545572,0.037711053686125,0.052642331490975,1
0.184889716039263,0.250993511439331,0.098026044301626,0.0358862189828367,0.0155276321091832,0.00881508440246806,0.0497046003761299,0.358465268793731,0.122170267401225,0.161248926818365,0.0340523526224923,0.0632894946437075,0.00965474949069949,0.00129254658541499,0.000242133347235565,7.7956047289517e-05,0.00248266653501637,0.129094717551166,0.014988729816496,0.0259669110562302,0.138815645811404,0.189815941609038,0.0787029500982185,0.0296688071157668,0.0120599116329276,0.00586351914484861,0.0374816176514021,0.250583943807417,0.0938048548252755,0.12633881917413,0.0680662698330306,0.125965792875826,0.019215580411937,0.00257388171729802,0.000482014465340285,0.000155271069585504,0.00494079509225916,0.256932282275262,0.0298388081295884,0.0518382336044256,0.179980788132442,0.164262637113105,0.0909292167025208,0.0354090055899304,0.0116903130094757,0.00634105816200336,0.0484420802123658,0.244776250821765,0.104382106596999,0.138261801022406,1
0.00963099426374395,0.0287462210548784,0.00718756269339228,0.00419818273873174,0.00206457094439339,0.000577238954117759,0.0705758378194541,0.0305505184264183,0.032692839471729,0.0203045274634731,9.32215730267577e-05,0.000823781065791021,5.04963106332384e-05,1.71762007953253e-05,4.18340082259909e-06,3.27201443308982e-07,0.00500236086872206,0.00093617171115336,0.00107388185104968,0.000406640018556528,0.00586000380946255,0.0181920550375499,0.00408678104066744,0.00292256301786724,0.00149665120200965,0.000414234226445578,0.0512679501354816,0.0236888165689328,0.0187625683514354,0.0143246960049798,0.000185469359295594,0.00164599613981117,0.00010189989401068,3.47141339967227e-05,8.4242076780819e-06,6.58466285441787e-07,0.00995797282267725,0.00186436671595058,0.00213733414891554,0.000816829353772327,0.0055431577989527,0.0229051540346049,0.00399934286508485,0.0045368305784426,0.00218703674634127,0.000604971378834602,0.0349887057783173,0.0167964184874332,0.0173901316270363,0.0124018392813831,0
0.00117849549160268,0.00189390171418106,0.0007447738231217,0.000373171417697887,0.000598861231208364,3.0109698076113e-05,0.0199164787560685,0.0197971107508741,0.00155074520799997,0.00269863864006086,1.37433579797933e-06,3.49839654841436e-06,5.57447633942846e-07,1.38530082243022e-07,3.60312630328334e-07,8.88505450803604e-10,0.000398380697683059,0.000393186843125031,2.35697604350237e-06,7.31857114640143e-06,0.00078596707371168,0.00134844085123085,0.000474868485910739,0.000188248023526502,0.000304197486241859,2.16630281840264e-05,0.0153910980492419,0.0149819965722233,0.00109218551349772,0.00201959837542234,2.75631256606531e-06,7.06776735550373e-06,1.10511552190451e-06,2.77093943874213e-07,7.14658165586114e-07,1.79064654307757e-09,0.000793045322164781,0.000783141059125183,4.74955664479978e-06,1.45643412585276e-05,0.00125389537560127,0.00210540197280657,0.000349604933540755,0.000209866754299393,0.000192945973032919,3.3397301663615e-05,0.0142651256862336,0.0142043076485036,0.00169841178795827,0.002391337422269,0
0.0818898488584453,0.113340218040024,0.012150922404168,0.005048282559482,0.003385908250236,0.00502302161797378,0.0893802472186254,0.091202560444717,0.0942855888610078,0.0646102593673527,0.00673960942592234,0.0129097277431301,0.00014780318563604,2.55915944132771e-05,1.14753757259916e-05,2.5229870031539e-05,0.00801826035580033,0.00831122889031901,0.00892700932051973,0.00419354074225834,0.0383649777101953,0.066295107721243,0.00662418929929106,0.00258389851458327,0.00178269652037362,0.00261916325436636,0.0602775228807001,0.0476975373730694,0.0558693210380289,0.0349601987750704,0.0134118556810956,0.0256907103469829,0.000294700357238284,5.09447958779908e-05,2.28684113334528e-05,5.0334347919941e-05,0.0159666058369698,0.0165875462861899,0.0177721026291206,0.0083470574029185,0.039877127894271,0.0822371983023814,0.00774577529699865,0.00304718172031937,0.00188321141963748,0.00283650967152306,0.0492449641885476,0.0446931809035159,0.0657237378659262,0.0347371657653874,1
0.411514755177917,0.307330278829633,0.0683050629727061,0.0257668300403549,0.0158607253908994,0.0140768112363655,0.0916141291905057,0.112001281911109,0.165329859997854,0.053711608209097,0.170123069392536,0.0948921013737141,0.00468869365826976,0.000667139894208241,0.000252822356965548,0.000199140618215823,0.00842497541797799,0.0125604506256426,0.0274447337202598,0.00289702582577975,0.337417205329311,0.233950507455823,0.0555444644961485,0.0207973584317345,0.01270151717668,0.0111887491382871,0.0756208248461229,0.0788218083998854,0.125773320971941,0.0310712800807097,0.338615821392793,0.188869436431834,0.009330822259259,0.0013277312099059,0.000503120089987622,0.000396294712708828,0.0167759921598411,0.0250410880748126,0.0546414319788771,0.00576743185963565,0.303940529209758,0.210221950707294,0.0487771343038631,0.0163075352526522,0.0101693640526973,0.00838279205413237,0.084649231097267,0.0865865930066899,0.125193781969802,0.0376313360366338,1
0.0521398020384593,0.029877116008311,0.0085874314191433,0.00368028808239352,0.00187175527562721,0.00144169017197763,0.0910301998522471,0.0261379983367055,0.01811700567492,0.0126345398164508,0.0026709417214034,0.000874425273743751,7.2473193550541e-05,1.33889384853556e-05,3.44412208589137e-06,2.03254358639032e-06,0.00831287382949115,0.000684889964731723,0.000324392764478378,0.000160433752414555,0.0378813510879146,0.0211304611025843,0.00609851960696446,0.00268621156871362,0.00139575123275644,0.0010292710976298,0.075101311490801,0.0209432436382762,0.0132524279223677,0.0100914226645058,0.00537611243059694,0.0017626852707174,0.000145853334229639,2.68618965557958e-05,6.92822361126202e-06,4.10084085308773e-06,0.0165577822821224,0.00136465636610968,0.000650988509832246,0.00031924364554196,0.0584542833969485,0.032565603618046,0.00937399549514724,0.00411310045530157,0.00206185577422765,0.00159836068921282,0.0795612553848172,0.0201507245125583,0.0202743345019558,0.00931144902023764,1
0.0118526056188136,0.00148469509793366,0.000788963820877273,0.000185231928680304,0.000717850401247201,0.000242561842606541,0.0287479266850598,0.0190916689427679,0.000990227919429888,0.00155099693492437,0.000141043162470265,2.17438573972441e-06,6.22902680562794e-07,3.37635267939936e-08,5.17746845055396e-07,5.90535540399791e-08,0.000818624011562999,0.000364622879049433,9.75662177426887e-07,2.38978441361296e-06,0.00838507995268449,0.00106713442073919,0.000536072982164928,0.000130354185455835,0.00039051690252684,0.000107080503945616,0.0217136763181329,0.0157040631782197,0.00071844730278585,0.00109903200439505,0.000280818797903931,4.36620977902946e-06,1.24047094981331e-06,6.79038416966297e-08,1.03046677412344e-06,1.17330588921765e-07,0.00164096755627176,0.000727276011618337,1.95129168996379e-06,4.78342544866564e-06,0.00641025661122473,0.00159101225771925,0.000434276212113184,0.000194837247715349,0.000220352175594395,9.40570853204973e-05,0.0244785987368008,0.0120631503581254,0.00109593485214615,0.00170651484565975,0
0.00985255194545956,0.00936718009481095,0.000620500824398851,9.00330140162829e-06,0.000459293957623768,0.00022702971754803,0.0305574921664498,0.0173553317637881,0.000237014570677642,0.00565766324097788,9.75230956652984e-05,8.81390881107745e-05,3.86862334452138e-07,8.12468843313125e-11,2.11979771504009e-07,5.17944786826582e-08,0.000934030966591703,0.00030152104149242,5.64437853741497e-08,3.21694586375621e-05,0.00446047877512456,0.00300714004312246,0.000317098763148169,6.45967106420399e-06,0.000212336161094243,5.0558923959912e-05,0.0186987106201576,0.0132462941055556,8.2160967128866e-05,0.00168155598502505,0.000194069612074186,0.000175442407475143,7.63810836802398e-07,1.6189517617187e-10,4.20748920245669e-07,1.02779535622366e-07,0.00186305646912332,0.000601219642731674,1.12075969456664e-07,6.40172813824387e-05,0.00437373732806793,0.00361553126880924,0.00019590811883744,9.95161877080946e-06,0.0001303062184263,3.86792249540567e-05,0.0168980538965809,0.0117799340528397,6.25451463828264e-05,0.00208470850032893,1
0.268350462900812,0.169130385411643,0.0354849789790656,0.0147291960292524,0.00884962675740072,0.0109783035766147,0.0929627831430355,0.0847200131667773,0.134119338616792,0.0362400951651537,0.0722194008597848,0.0286433574254256,0.00126426052856415,0.000218038953275155,7.87069648475793e-05,0.000120886342238653,0.00866850836892652,0.00720782978184446,0.018050983134977,0.00131975068141085,0.198991417512971,0.138117312689818,0.0275188727337873,0.0103486393607338,0.00645602340223433,0.00816395268023532,0.0726830444130718,0.0638098028560765,0.107977145093708,0.0300959324351997,0.143861679573631,0.0570984857593538,0.00251712279736483,0.000433886030450919,0.00015662768933612,0.000240802470466765,0.0172671898643295,0.0143492446080665,0.0359484790712441,0.00262647856630431,0.188564617947476,0.103343791344443,0.0205139434303509,0.00897607134193388,0.00532406037794416,0.00678812622629582,0.0621272941315558,0.0443219180334979,0.0942666419327291,0.0198493856364989,1
0.141262800464695,0.0938412368662794,0.0194672804544496,0.00461551309604932,0.0025884955667664,0.00419937664208632,0.0693267006660101,0.0701594245739558,0.0475756972822746,0.015541649346686,0.0199413442081051,0.00874817275304363,0.000378823850620048,2.14072643718093e-05,6.73202309546993e-06,1.75367818515139e-05,0.00482602175488259,0.00494228611854608,0.00224434222369736,0.000242617124085844,0.103361030038709,0.0582789354751617,0.0143934277309253,0.00259867084457725,0.00186219474825987,0.00335207784044316,0.0500600773512462,0.0516921312531347,0.0321072330740626,0.0122182877769793,0.0397964413400257,0.0175105635588095,0.000755901560246555,4.26013782795088e-05,1.33986199690975e-05,3.50837280812217e-05,0.00960807380136095,0.00983990396909042,0.00449653862863658,0.000482942909428601,0.152647455457773,0.0749980909794747,0.0145971428604518,0.00236431949256893,0.00264533177955716,0.0052088682858016,0.0446732460155479,0.0498645655742882,0.0418691613929934,0.0119011447661074,1
0.0116074618408057,0.00188905120263901,0.00216178190348552,0.000359289443769195,0.000770734886275262,0.000413488448886095,0.0210897468597752,0.0151655589485822,0.00181442515872362,0.00372779597899321,0.000133813254669445,3.5824499614476e-06,4.6035802810004e-06,1.28864481035185e-07,5.96854863659218e-07,1.68620993547666e-07,0.000446848440242909,0.000229500950204386,3.23811150078662e-06,1.39645199535407e-05,0.0092956309862136,0.0013612535942905,0.00153869498840622,0.000224346002752632,0.000447556464444794,0.000284449326510916,0.0167319372397402,0.0119571782723187,0.00130804062322538,0.00262492803081288,0.000267877137466898,7.13283836177761e-06,9.25379269382483e-06,2.56980866431686e-07,1.18760188434218e-06,3.38449599801591e-07,0.000889364772987351,0.000458342432026024,6.51386288588703e-06,2.77900969822362e-05,0.0130649345211954,0.00210552685779515,0.00229605193595383,0.000318221784376025,0.000215387828373031,0.000391880401274473,0.0120035064264136,0.00874747548505277,0.00207661254014891,0.00386959144873207,0
0.00322992950570851,0.000106024642188278,0.000464393084699963,0.00032711728378619,0.00072152030850523,1.93712561727284e-05,0.0143839565270051,0.0161582059798577,0.000107787702857964,0.000297562764562246,1.04545256807132e-05,1.12975984226556e-08,2.16712020434029e-07,1.07543356632063e-07,5.23205115986041e-07,3.65385691677719e-10,0.000207936071882237,0.000262087794701666,1.13347575471499e-08,8.88386432409944e-08,0.00214151616806354,7.47620055763313e-05,0.000223746238930538,0.000122098572583026,0.000396840815587739,1.35668021751828e-05,0.011190578380262,0.0131944326530961,7.64563273899067e-05,0.000177214366011701,2.08340452086681e-05,2.24815897558565e-08,4.31289394028025e-07,2.12906311018774e-07,1.02339986130551e-06,7.38804246693397e-10,0.000413684972738951,0.000521859052451349,2.28962531726343e-08,1.76627959001e-07,0.00162414713879875,0.000117199639188231,0.000126762187952061,6.64990322584732e-05,0.000234706983618584,2.1337731957703e-05,0.00799537591883933,0.0096950314400193,0.000119606594371959,0.000217247027785023,1
0.0680986113133506,0.0566811160928899,0.0396317661393391,0.0213284860134043,0.0159069305693271,0.00477097450203666,0.0550747911841484,0.0992208156466601,0.0498377896636992,0.020923178180354,0.00466048701495271,0.00322101537980948,0.00156794151168269,0.000455383537184664,0.000253821674395705,2.28576990996152e-05,0.00304652181025944,0.0098166299767079,0.00249625211333714,0.000437667479003806,0.0390587717122388,0.0390785364358618,0.0217920516170528,0.011237048936609,0.00759376932877324,0.00232645016985863,0.0418400684360576,0.0575668748805984,0.035094852713825,0.01540169872311,0.00927460516348566,0.00641728030558707,0.00313066976728614,0.000907975017047481,0.000505578674668603,4.55055592934876e-05,0.00606449466436161,0.0196120097514718,0.0049675470233247,0.000873247509502478,0.0417466913211244,0.0411078251530286,0.0249339081985083,0.0139613659749562,0.0112023484121052,0.00321458668246897,0.0327416730740019,0.0580844489307639,0.0268575096063872,0.0125632587992542,1
0.0476003139842213,0.031944229054596,0.0303619156653134,0.0144139860040017,0.00960645865432236,0.00288168957000844,0.0690584508419087,0.0939771269864344,0.0108666112878424,0.0190672715695408,0.00227694501587155,0.00101916302870068,0.000917497560066191,0.000207225641082975,9.22890291489628e-05,8.32461307230853e-06,0.00479015494339323,0.0088157958491797,0.000118651657719111,0.000364176341802664,0.033378958103909,0.018908678488067,0.0201817854065964,0.00991388601991454,0.00695937630972901,0.00208098417797055,0.0474256601749063,0.0700779735096583,0.00631937045464189,0.0147900815679868,0.00453117146858975,0.00203447021722123,0.0018347273413085,0.000413918276251683,0.000184108598251664,1.65858242113748e-05,0.00953518831263444,0.0176034170173799,0.000236126968045227,0.000725915215681763,0.0293335372377876,0.0203021938854859,0.03022476191111,0.0157159566806665,0.0108616131092992,0.00311833534487002,0.0545014856728991,0.0900575367313875,0.00783404503780371,0.0179602073790788,1
0.00506049886121794,0.0015793193567574,0.00229972816770034,0.00103304820837238,0.000827968143795814,0.000181561551405128,0.0270692852977126,0.0168020264635553,0.000182474065485648,0.00351478503166778,2.57314976865753e-05,2.43856779472787e-06,5.25562560115147e-06,1.06641106710065e-06,6.88354184114229e-07,3.30630859503743e-08,0.000736114300240096,0.000281377607780007,3.27814361734985e-08,1.2264125892447e-05,0.00413452602894693,0.0011556781147483,0.00163182256282987,0.000694410621675369,0.00055159539891732,0.000130095958300635,0.0209129344693452,0.0137650232902502,0.000130934554455738,0.00255096821618177,5.12113184694001e-05,4.92038075085344e-06,1.05168259952414e-05,2.12769210010312e-06,1.37039592794238e-06,6.58603454067217e-08,0.00146517067060158,0.00056227489799465,6.59134026313932e-08,2.45542352093478e-05,0.00389355169311077,0.00175748662565497,0.002429454269071,0.00111519563142726,0.000774211502558726,0.000200980123079051,0.0265541330789963,0.00878303170834899,0.000199530841940994,0.00371942304704724,0
0.00350193621885108,8.97539207469097e-05,0.000643674263111366,0.000332797551236948,0.000641572240148138,9.93606828150134e-06,0.0161005877205251,0.0124254347205481,9.25056627620473e-06,0.000212929169771932,1.23122412900054e-05,7.85615104944691e-09,4.15747431475835e-07,1.11283395192442e-07,4.13642905731698e-07,9.92212165290656e-11,0.000260478397604112,0.000154988034723156,8.52810146341539e-11,4.489429672456e-08,0.00266826296037271,6.37138673107383e-05,0.000365788518697219,0.000136594800058985,0.000323393351459249,7.00228715497267e-06,0.0134615425359915,0.0103929720721704,6.70372899754386e-06,0.0001546377366161,2.45142161612592e-05,1.58726322662695e-08,8.23601518766881e-07,2.20353224287197e-07,8.23173875543892e-07,1.97444013553157e-10,0.000518342362988842,0.000308570374375704,1.7042349289057e-10,9.00071297859552e-08,0.00174983861972734,9.96320934063204e-05,0.000177760768151222,9.08324104412662e-05,0.00021233235808918,1.09829014254667e-05,0.0100721578885014,0.00698913751931548,1.02359181670269e-05,0.000235867635759251,0
0.18426205072239,0.101632765157404,0.0338771514004974,0.0122998595873847,0.00673608114914713,0.00815832710067638,0.0760144414728888,0.0512255130007602,0.234465613284444,0.0298634545042752,0.0336925003933269,0.01033660810802,0.00114747198952301,0.000151868745356642,4.55000432317731e-05,6.60869517802329e-05,0.00579648409069154,0.0026360953629191,0.0542671550008019,0.000887504502675227,0.0845973233716783,0.0543452700226875,0.0164984685922258,0.00524164720576085,0.00292458059689521,0.00295097388552766,0.0561143196038096,0.0341473688998175,0.0929336992061362,0.0175660694027412,0.0674758801142715,0.0206133118045921,0.00228929637584588,0.000302392346947116,9.06472167776672e-05,0.000132314471773935,0.0115456969698032,0.00524696806828555,0.108969537513871,0.00177488688961802,0.102517195218827,0.0469280222292871,0.0164265580194819,0.00638045823507812,0.00309597991190021,0.00340078407069155,0.0517442251581964,0.0275926240854817,0.117194936959619,0.0128070966380554,1
0.349635056061042,0.179811188755754,0.0441485991388366,0.0172331670159788,0.0102022955102745,0.013302592462003,0.0887703631125577,0.0796366442291944,0.309407769752852,0.0437678084098418,0.122315599356958,0.0324825309505748,0.0019562385658652,0.000298445518656025,0.000104546789446071,0.000177087790802946,0.00791097316948598,0.00637248019852401,0.0952215242827534,0.00191493817260058,0.287808493102574,0.147640702335842,0.0328972026761874,0.0126991351543304,0.00626655297694214,0.00743749478746589,0.0602397398126102,0.0625970657844809,0.221080619678723,0.0335829531010104,0.243948260233599,0.0646516372203558,0.0038955546099675,0.000593935320810185,0.000208110868822784,0.000353159038899793,0.0157515041135639,0.0126825797191584,0.190478520412265,0.00382094265985954,0.356267081324319,0.187648447895566,0.0384830873851407,0.0132336228330179,0.00818712232166825,0.00796002748450008,0.0701554112169333,0.0595278795918356,0.30523128153558,0.0431822666627591,1
0.045831630703038,0.0270530531355971,0.00524572677541302,0.00181673839386544,0.000569892013198604,0.000201136957223341,0.02035385983488,0.0256862933712809,0.0264130404459016,0.00622940464744672,0.00210589022653621,0.000726832565063449,2.70644801760021e-05,3.26344416952864e-06,3.21955372205582e-07,4.00585072168416e-08,0.000416361389159667,0.00066297778184795,0.000701041348842775,3.89198718486111e-05,0.0319758937813547,0.017666220558384,0.00378508864822494,0.00127076855757144,0.000381022441685358,0.000139012533929195,0.0149565705169067,0.0192135830130344,0.0148198268194778,0.00374044299852268,0.00419577965641509,0.00145506440901125,5.4445674616205e-05,6.54700052000028e-06,6.44886476272777e-07,8.0313000063387e-08,0.000828557167401732,0.00131937392221522,0.00139518412675152,7.75256046005924e-05,0.0512642496200312,0.0284486480707153,0.00588359226477228,0.00200401319822293,0.000459951864499045,0.000222466603562192,0.0149864360649059,0.0148279415874441,0.017378864316244,0.00339274759928518,0
0.00321755586921513,0.00173376595947846,0.000653399169459821,0.000254446653934595,0.000716141588763488,0.000229027674477495,0.00513275422289843,0.0106084150420117,0.00129923881240088,0.000284838644389868,1.03718809243234e-05,2.96359715254314e-06,4.26929745405711e-07,6.490495085485e-08,5.1537896788555e-07,5.2717106158647e-08,2.64775194483499e-05,0.000112977972474425,1.66598494342667e-06,8.01866897399939e-08,0.00249286047520043,0.0012002428672875,0.00043425365087053,0.000120898199255245,0.000399900896973982,5.30492981506225e-05,0.00403564477490363,0.0084060979518041,0.000879058518248021,0.00019617137779167,2.0669243852412e-05,5.95465196316866e-06,8.51481676045592e-07,1.29032876865601e-07,1.02565702507533e-06,1.04623046808627e-07,5.26900960792872e-05,0.000224948836478593,3.34514573716925e-06,1.60916418966643e-07,0.003258500499009,0.00192336320981938,0.000250918499938311,0.000121877506568271,0.000207011263700867,3.68868072351244e-05,0.00388921127759073,0.00843181173496223,0.00140473731111658,0.000315400949696332,0
0.135998408994934,0.190227122942314,0.0337985648396966,0.00925113413159406,0.00495042796769364,0.00326090034803638,0.0647120911228636,0.116504869189372,0.0923370852081615,0.033919763923401,0.0184670181732972,0.0363028957065903,0.00113805567086125,8.5664430018473e-05,2.46294407998786e-05,1.06868356550063e-05,0.00420788901213019,0.01356266933145,0.00856872353295431,0.00115584191391212,0.0796792418206085,0.134137557473159,0.0226099536343203,0.00511517852320968,0.0028697175650569,0.00173496200201989,0.0510543614117873,0.0676630491428897,0.0670623494737694,0.0243665246656629,0.0368702291840564,0.0723077374334077,0.00227451398190669,0.000170818978178494,4.90075131685127e-05,2.1266870343596e-05,0.00837445977179467,0.0270681705427107,0.0170520101477776,0.00230055684471259,0.0721046961231313,0.144368899264888,0.0174950125400972,0.00499799170653359,0.00316760352392862,0.00183827448784318,0.0589886064193201,0.0642243108944055,0.0681575529204558,0.025319056095455,1
0.135425754428276,0.103804304830754,0.0411136736017779,0.00969586272193481,0.00316956208969911,0.00179650028586449,0.0190678233623376,0.112531622121023,0.0412191843627496,0.018959063840892,0.0183087863324809,0.0107910492254263,0.00169040742885092,9.42343411389931e-05,1.0096594937536e-05,3.24349971124212e-06,0.000362993971957344,0.0126329207759546,0.00170535357905734,0.00036119144186698,0.10551612552776,0.0743161854356044,0.0288157095026688,0.00614222830809705,0.00206813228725214,0.00115340690909278,0.0147354098849996,0.0814680751742232,0.0309793308296227,0.0157183548175279,0.0365573764938905,0.0215122298662597,0.00337228076301775,0.000187770885389107,2.00918280452355e-05,6.45245841899079e-06,0.000724485591559939,0.0252331218793488,0.0033954704763796,0.000718820337134119,0.134660703959362,0.111849615774892,0.0307477835481369,0.0068104644964653,0.00205639177518298,0.00142922883781057,0.0161310897661128,0.0820240618648584,0.0204078214508779,0.0183380141919244,1
0.0138806552098119,0.0402803718088546,0.00286140308056784,0.000754151726046321,0.000546349487116245,0.000144982176089386,0.104575588624038,0.0321035590508158,0.0267236675628347,0.0313169653941589,0.000193618368638255,0.00162550675405306,8.18338582120024e-06,5.6307649729568e-07,2.99822134816846e-07,2.07218427319792e-08,0.0109855707618168,0.00103514877393805,0.000716411326424949,0.000984115226482266,0.0103438096462254,0.0290454065080668,0.00228788415603612,0.000527490554888529,0.000302542366495114,0.000100602464672799,0.0838956200333659,0.0249210345961138,0.0169601464180612,0.02257674305144,0.000385287712508334,0.00323983152591429,1.63294515134779e-05,1.12899146530249e-06,5.96494473191344e-07,4.16375883435577e-08,0.0218666945635946,0.00206060616083835,0.00142698237319072,0.00195993399231305,0.0134131620516334,0.0261834994251082,0.00344782994413306,0.000848235495198595,0.00024329185704224,0.000161162627636504,0.0843683161059758,0.0193564674617815,0.0164915903473037,0.0247144026433592,0
0.00123577238753982,0.00322782355253953,0.000660368751365559,0.000231739236972341,0.000639117439931938,7.57511510645425e-06,0.0118664402591312,0.0165811652785455,0.000994610044293277,0.00181059282349616,1.53338842891982e-06,1.03433279933416e-05,4.35580009191556e-07,5.39711958746508e-08,4.10523224544213e-07,5.62459162298628e-11,0.000139318362231669,0.000276224601785024,9.69389328999252e-07,3.21325232447206e-06,0.000881165662932329,0.00236637212864546,0.000414350977989878,7.06142764217154e-05,0.000337193784526514,5.29905971479418e-06,0.0089105333783589,0.0136843951999639,0.000719478874779145,0.00130542799666328,3.05124998909111e-06,2.07101002977622e-05,8.69336850912128e-07,1.07123737906731e-07,8.15810098873254e-07,1.13346377063411e-10,0.000279427434207919,0.000549769406638449,1.95379026367768e-06,6.47421017663628e-06,0.00108335159364926,0.00361326225517817,0.000225851192489412,4.19456878677131e-05,0.000184390116526327,8.39959359597021e-06,0.0129900188027895,0.0127950817110457,0.00112651633011554,0.00202700268288762,0
0.0594564266461318,0.0512783988771742,0.0103188105870251,0.00372526678312787,0.00183206685969242,0.00195310135258672,0.083395215627937,0.0731201779415423,0.0694855556581618,0.0271176269381282,0.00354680071808497,0.0026352916348617,0.000106982790702592,1.38641024376932e-05,3.36831375060313e-06,3.8249209567984e-06,0.00698845910598221,0.00536734178714567,0.00484697234795265,0.000739037679507539,0.0355296492586869,0.0309118699450333,0.00580779345099361,0.00185901487747261,0.000693955794393592,0.000936342071043194,0.0537252519921572,0.0460385723738869,0.0343905177711993,0.0166498153991669,0.00706378239312698,0.00525153775236612,0.000212897761204709,2.76715836429981e-05,6.70122974993273e-06,7.61959939906683e-06,0.0139078210934622,0.010686278686775,0.0096509707244704,0.00147068898081028,0.0375713426740232,0.0340259813380772,0.00492131726000557,0.0017185477751728,0.000777888548961414,0.000764678016432386,0.0442348853182163,0.0417379370617995,0.0386767529342394,0.015505175849641,1
0.0675921158278742,0.215296462630577,0.0314395273393951,0.0111031067416996,0.00511151043930738,0.0124980360635757,0.0657644276405877,0.225330720875506,0.113172749647337,0.0473662953101776,0.0045785512878859,0.0465854929908939,0.000992028408912513,0.000123550679042709,2.62455206308275e-05,0.000156983790427177,0.00434560716896207,0.0510142574048321,0.0128693347392949,0.00225481920746695,0.0528807685768292,0.176493364337315,0.0262250749894095,0.00885952469751906,0.00352002215819771,0.00934230116147531,0.0438530562642935,0.17471559797237,0.0923143335987938,0.039907849011526,0.00912319698591299,0.0927042580205635,0.00197548965462856,0.00024621120541515,5.22346476844713e-05,0.00031239505999716,0.00864835317537937,0.101533118497812,0.0256127857163728,0.00448710143137911,0.0467731116914804,0.188680899241186,0.0268758335932821,0.00950085068551834,0.00274409464586268,0.00905540887840017,0.0523034902568938,0.145741083615251,0.0847630774651026,0.0469647918636702,1
0.0148092635533742,0.0400286157371015,0.00757655867105842,0.00225767854410058,0.000648232063264029,0.00104522768029878,0.0336431887241334,0.030747636981599,0.0305176066209896,0.0164196894777153,0.000219230633637389,0.00160464740750837,5.67858054425458e-05,5.04114367039103e-06,4.19615731889034e-07,1.0957988529118e-06,0.0011367015180471,0.000948902902929263,0.00093599180313698,0.00027094976975148,0.0100125714195414,0.0318211407319648,0.00512416749798571,0.00158142060857793,0.000403029059132633,0.000769780257849589,0.0252797672019397,0.0246721271859357,0.0232079751791006,0.0117497772279917,0.000437430139120763,0.00319891405790757,0.000113905362620759,1.01122974411797e-05,8.35351739794587e-07,2.18273822848574e-06,0.00226286984443111,0.00188957484144846,0.00186262722676854,0.0005392009414244,0.0160353063962602,0.0459135077757733,0.0082290878361068,0.00254073195528465,0.000260959594730147,0.00114724288421649,0.0173631793940175,0.0336530082788794,0.0209082847424525,0.0144352434698437,1
0.000952179767310455,0.00367726225968907,0.00092215929752941,0.000351420717559223,0.000569671735946045,6.82541362409031e-05,0.00828207205448408,0.0114209532237797,0.00350061978284007,0.000945357510830909,9.04188356095743e-07,1.34736474986866e-05,8.5203198310962e-07,1.23751065067063e-07,3.26112623100336e-07,4.67797818574914e-09,6.85981882397384e-05,0.000130808111077307,1.21092557856782e-05,8.70424094279633e-07,0.000561758101126805,0.00270621629446293,0.000647351591925174,0.000163512700166739,0.0002847184416266,4.74558792778461e-05,0.00595246540038436,0.00923185687313441,0.0025302679889942,0.000652343357542749,1.80611375496039e-06,2.69267954750854e-05,1.69814954336797e-06,2.46628632126937e-07,6.44491936726371e-07,9.31286356079417e-09,0.000136847478535307,0.000260576104555967,2.43021859120844e-05,1.75976765843542e-06,0.00064756028069042,0.00408819118964922,0.000415107537107194,0.000156099504191456,0.000182372758080695,7.2813588874785e-05,0.00496336132035373,0.00744550851336026,0.00393336119749352,0.00102833502524591,0
8.22891944361897e-05,0.000173134470178383,0.000519544707845165,0.000324237084172654,0.000458050729424863,3.29422630811375e-06,0.00123972522931275,0.00971380507512036,0.000226312173949333,4.50160020969174e-05,6.79650930272245e-09,2.99793841525805e-08,2.7127907984058e-07,1.05657920958891e-07,2.10863477931185e-07,1.08934874094334e-11,1.53210067007515e-06,9.44422163628593e-05,5.12643331361116e-08,1.97604999326066e-09,5.64649182100716e-05,0.000127867561926201,0.00025409235191037,0.000105723664766798,0.000215211663993317,2.35083988623866e-06,0.000767624872552156,0.00776119335769542,0.000166221703467403,3.19693198400398e-05,1.35324761092628e-08,5.98033471130123e-08,5.37622847151846e-07,2.09132737005549e-07,4.18525337352014e-07,2.16902562933169e-11,3.06121249160524e-06,0.000188321703436399,1.02224361191332e-07,3.9926088223978e-09,6.25039691503756e-05,0.00019730127085837,0.000149934957443374,6.93826177397835e-05,0.000126482647032693,3.64246374476846e-06,0.00104784759165805,0.00533347605653208,0.000263226154624038,4.99509792584407e-05,1
0.209833338694929,0.292829836780699,0.0569852716759533,0.02695839849042,0.0142696683267161,0.009745027373299,0.164907835780175,0.121182601933414,0.213267267359635,0.123457225443407,0.0442500627545249,0.0861204552030878,0.00326355017578796,0.000729716050032959,0.000204235187366694,9.54104515444254e-05,0.0272339908376673,0.0147586918447641,0.0457108273070887,0.0152794482347673,0.132083304942541,0.2043716101983,0.0366976445508808,0.0171042617977605,0.00886718458206751,0.00546045366303415,0.113793076541318,0.0845658532255368,0.151917047999428,0.0830708347956598,0.0880584003427198,0.171437922259504,0.0064943858791315,0.00145281544674598,0.000406827643594488,0.000189898112200876,0.054291443540915,0.0293694374054296,0.0909639206080121,0.0304447170902441,0.156337218780938,0.259759507597932,0.0426178812750576,0.0200864114924494,0.0104719098561312,0.00662268734564918,0.131896161907727,0.0575852455385048,0.186909885338611,0.089878615735167,1
0.154583883512449,0.119627266893151,0.0221322719054432,0.00826805547701237,0.00571329187225583,0.00255944910537185,0.0814304522766858,0.043644599531642,0.0510929780548313,0.0425378321234875,0.0240124639427521,0.0143087120647078,0.000492298413588044,6.81557768627174e-05,3.23948732081627e-05,6.54224358093448e-06,0.00653507161139566,0.00191314902068302,0.00262358358106839,0.00177769062470197,0.116002838204839,0.0898903394711017,0.0163380592906944,0.00674348072309701,0.00437561570348821,0.00197917778352782,0.066849950405067,0.0320078694088044,0.0416186240761536,0.0306035740166351,0.0477874464149717,0.0285477946282228,0.000979659929859481,0.000136175277512958,6.48737838840589e-05,1.30595386410279e-05,0.0131331645501926,0.00380831250278155,0.00522095556347007,0.00357826919249585,0.172642701083903,0.124876920064039,0.0254806272276915,0.0103612630845688,0.00602450362988487,0.00274672241365994,0.0785456555816487,0.0289906250250282,0.0536739495785829,0.0467860423325325,1
0.00945744503730681,0.0087823314354901,0.00227828751634743,0.000953254540349499,0.000668615160734995,0.000197496486533949,0.0158533881940423,0.0125880869131398,0.0061070115488092,0.00433971125086598,8.92226571462172e-05,7.68893471770537e-05,5.1528213998182e-06,9.07480889071871e-07,4.49284357147428e-07,3.86723362095183e-08,0.000250507983837409,0.000159171125617259,3.66417662284043e-05,1.89047528853451e-05,0.00685023582103317,0.00614326054027113,0.00162349409535257,0.000658737576275746,0.000470383732975247,0.000143556300521939,0.0120868549972353,0.0105266849912772,0.00433693537003532,0.00245652338513442,0.000178209605332954,0.000153629094658801,1.03176405549504e-05,1.81160390035994e-06,8.9275605362514e-07,7.74824263499146e-08,0.000500584753602676,0.000316818749024029,7.37536899282341e-05,3.76427742606396e-05,0.0104412754060573,0.00909239776076753,0.00241722129689112,0.000979846278708619,0.000544886954369459,0.00021889248526908,0.0117569981272735,0.00715159408839814,0.00676988488954987,0.00211746762869847,0
0.0105519038108245,0.00597820413154628,0.000577115999831938,0.000333988224439451,0.000677018189004897,0.000231570293365313,0.0176594812874533,0.0130195042394997,0.000923393804146565,0.00335347241054941,0.000111712750417738,3.58872429390931e-05,3.34137153254333e-07,1.12012168681927e-07,4.60544724866949e-07,5.3892867418516e-08,0.000312883983146127,0.000168960298151072,8.54331893336582e-07,1.12507923434484e-05,0.00457727294720582,0.0022111163909932,0.000292537108538161,0.000128415599338125,0.00038408250231115,6.97301015102273e-05,0.0102137457933264,0.0100874372144059,0.000457123266324213,0.00124504845702286,0.000222495990200569,7.14466083846962e-05,6.65529343348796e-07,2.21940978615568e-07,9.16292522104536e-07,1.0696804128997e-07,0.000623165286202167,0.000337594405006081,1.7024053502006e-06,2.24402438722159e-05,0.00529800451389952,0.00257591627716263,0.000164283509843043,7.76036625624134e-05,0.000191606158357705,4.03034767217216e-05,0.00905422887173003,0.00794043323455698,0.000371674578354127,0.00127871129143648,1
0.138207436042401,0.158830040289348,0.0282161735481387,0.0084662758878405,0.00413714303272675,0.00156180105331417,0.066825140502519,0.126821739941242,0.0765296264950491,0.0345849351790789,0.0191907736598618,0.0252899560676557,0.000800134975101434,7.20132194115008e-05,1.72018911112794e-05,2.4507038179402e-06,0.00448531618291563,0.0161494854258473,0.00588618620477843,0.00120198897752216,0.0964361999909919,0.119559913201967,0.0207387867514113,0.00637064084067765,0.0026922153967494,0.00097775690835755,0.0571657087976462,0.0943297042651403,0.0552528597303636,0.0268168239428671,0.0381930203259319,0.0503903245590755,0.00159226862137694,0.000143330111625991,3.42266551227442e-05,4.87736126393538e-06,0.00892829279795295,0.0321513237907005,0.011713500501351,0.00239209603391228,0.084213555894779,0.16454755542279,0.0146727672383071,0.00400532070161329,0.00236716873284457,0.000634855232063657,0.0557452737055644,0.0787903006265194,0.0455490887445795,0.022709617073078,1
0.0755312874767753,0.0653596842630365,0.00868892652191247,0.00119888160787818,0.00120225307831823,0.000334684372666895,0.0349560849515903,0.0573100247947009,0.0312899400938748,0.0112079891214622,0.00572541914014967,0.00424106355220274,7.58703868514695e-05,1.42523971980194e-06,1.45266928509564e-06,1.1187703356674e-07,0.00122784709425481,0.00328572319751286,0.00098384569423453,0.0001262263258216,0.054283813520732,0.046575534196573,0.00529398089604464,0.000717709241804146,0.000942225312176336,0.000214353288818135,0.029635183534685,0.0394084905037113,0.0185445501997511,0.0085524450306566,0.0114016821335152,0.00849163526847536,0.000150988422537795,2.85543059141351e-06,2.89079717655186e-06,2.23024089210784e-07,0.00244362944115836,0.00655331840192075,0.00195797687278196,0.000251209897247138,0.0645245116286326,0.0565755407862998,0.00528584065220662,0.000959691570186745,0.00111038618358946,0.000291762391405666,0.0357101990849941,0.0336727895628768,0.0167154022603526,0.00886418277148149,1
0.00827864609910516,0.00357956543340646,0.00081222573750363,0.000245338555748227,0.000650318749004179,0.000232085435512665,0.0195095217578411,0.0150727616018449,0.0147666153542935,0.0110549265112613,6.88695213024929e-05,1.24918922329679e-05,6.59511557435911e-07,6.03473495660771e-08,4.25032766673571e-07,5.41272163491081e-08,0.000380976662808134,0.000227221977904771,0.000219137100238797,0.000122713874861663,0.00598738665378438,0.00254648718023991,0.000501419360785585,0.000110675321395483,0.000363399178363061,7.39964071683208e-05,0.0146335287661093,0.0119445433529244,0.0089274989003427,0.00695713843941214,0.000137057147472802,2.52427097490214e-05,1.31347144534383e-06,1.19962280415902e-07,8.44771373177441e-07,1.07447514112175e-07,0.000759688142284655,0.000453262713949965,0.00043609338878142,0.00024431143434044,0.00918890602264236,0.00396569020330083,0.000345296593521274,9.14439748032183e-05,0.000172540066731505,3.73929865898347e-05,0.0164959792974553,0.0103312177260182,0.00587690279407973,0.0056256895556868,0
0.000663705092423303,0.000181669332660051,0.000605935466370248,2.28387652744695e-05,0.000643176210896196,1.27371511919329e-05,0.00471449020747743,0.0115778993882919,0.000691223116525728,0.00130944342187993,4.42705950398697e-07,3.23196553089398e-08,3.68976959837745e-07,5.15719070681658e-10,4.15631382157957e-07,1.60841298560695e-10,2.20560408447668e-05,0.000134623993308823,4.71356107187771e-07,1.71841493593813e-06,0.000454341291088061,0.00013054252911841,0.000329543509900223,1.66580175755809e-05,0.000343537126460915,9.4049719152056e-06,0.00257206021521848,0.00934707451099524,0.000502369681869848,0.000523663605677201,8.80738613008153e-07,6.51614800238889e-08,7.34024884952695e-07,1.0347432900206e-09,8.27228840164221e-07,3.22268214134964e-10,4.41660072527689e-05,0.000267989052635487,9.46777300028369e-07,3.42329366443662e-06,0.000630121703146005,0.00020146431016928,0.000178129036942237,2.59978667823351e-05,0.000217001230947874,1.44515000688743e-05,0.00254653575637209,0.00579181231584437,0.000768839405844296,0.000835550155904842,0
0.103968184034824,0.101716204304552,0.0372613087609681,0.0178558573726926,0.00785625552170946,0.0190881358880407,0.308131731723947,0.0951636112502552,0.106461194747284,0.121339758365727,0.0108621802818933,0.0103346960476441,0.00139536382219403,0.000320381528143833,6.20149711458234e-05,0.000366041135057652,0.095308798352224,0.00908533034009371,0.0113810753813634,0.0146841222421993,0.0716974260095501,0.0723519466867625,0.0248176090200393,0.0118923609540005,0.00536965814021134,0.0126313319086015,0.222269113157194,0.071346889683626,0.0737294571030939,0.091613631031384,0.0216167672134621,0.0206283394543648,0.00277676540416167,0.00063759547210877,0.000123365929010285,0.000728500627537488,0.189751999808458,0.0180957386007548,0.0226578751649015,0.0293340175526871,0.0802947398006276,0.0672976601187812,0.0270470615573312,0.0132628409015578,0.00494886393905431,0.0118085962643447,0.187907408960718,0.0757210553516582,0.0619469638362499,0.0864964246016173,2
0.0598151704702353,0.113990115050384,0.0317524959509769,0.0123296368548694,0.0136252451960978,0.024586371315496,0.257224567190556,0.121876705817029,0.0982919036034904,0.145265353791849,0.00359580573547642,0.0130179107802175,0.00101318214980151,0.000152629795874207,0.000186580100737314,0.000607523520397924,0.066468608487185,0.0149265960021213,0.00969870118320977,0.0211700004299826,0.0472917443538126,0.0831778663685617,0.0207936647332345,0.00806505805273498,0.00905103147766185,0.0170652943001948,0.176057057279128,0.0954130992208206,0.0822371997746616,0.105873412661493,0.00715544777687282,0.0259463425790677,0.00201633719264291,0.000303885138574593,0.00037128967186866,0.0012089455768468,0.132295597943068,0.0297048295009298,0.0193114797346655,0.0421655129407995,0.0482241508444418,0.10948481446985,0.0260523968047792,0.00848611966118801,0.0109215695317859,0.0203846899491179,0.158962268553856,0.0974390114219807,0.115964999470904,0.137663617537384,2
0.01064860398123,0.0148299208198352,0.00230110909200165,0.00140253882092197,0.00118801823555232,0.00221305279343804,0.0586250890407229,0.0277123985854908,0.0147679202860342,0.0311314632010343,0.000112114313853873,0.00021895263427398,5.28799381777905e-06,1.9538850546021e-06,1.40163593818261e-06,4.83405696204121e-06,0.00345213266130738,0.000769564598614944,0.000218924449859872,0.00095525846491304,0.00853969708095804,0.0103040130566168,0.00162239659959348,0.000980425555594489,0.00087707127760642,0.00159274131080685,0.0435625395823689,0.022347094963697,0.0109517591174577,0.0195548094691289,0.000224935764621393,0.000437775607237178,1.05550191067298e-05,3.91116568645639e-06,2.80402066856371e-06,9.70741602109685e-06,0.00687176671385085,0.00153368563620239,0.000435910247911829,0.00191964903265344,0.00936540060790724,0.0166082409435974,0.00245352831517868,0.00157788300574794,0.00117562915002262,0.00249994819834704,0.0341569981066154,0.0203229768934461,0.0124576637274318,0.0293616449852421,0
0.00852476591920826,0.00159652660782193,0.000473292882660623,0.00040459078499526,0.000394563416371351,0.00035201028871729,0.0586143593837836,0.0171450869103876,0.00801089432193894,0.0035249287050715,7.29971169252536e-05,2.51795142737471e-06,2.25105618946806e-07,1.64443960751774e-07,1.56359487875813e-07,1.24051498253494e-07,0.00341092964876208,0.000294344708446353,6.42780270707908e-05,1.2393036047214e-05,0.00429291134662444,0.00077278769901528,0.000244928371410382,0.000171228452299428,0.000144425453538468,0.0001782529411644,0.0426895259764765,0.0139345715266937,0.00367930348560452,0.00179040085959799,0.000145294561685103,5.05244437781827e-06,4.46955170430652e-07,3.24873278830334e-07,3.09024983627537e-07,2.47342364199657e-07,0.00682931877367279,0.000586798811051429,0.000128121288073692,2.47319530676303e-05,0.00387741085741346,0.000982404499227571,0.000129262096581406,0.000100771922498733,0.000105583560956082,0.000175703521723542,0.0372084690857798,0.0133277580548963,0.00326297534214465,0.00140065169257292,0
0.0694516582537629,0.108895449468579,0.0201784287517158,0.00557662288464791,0.0072098990930569,0.0166209685729158,0.323009509206381,0.0754992205361024,0.130185953978097,0.135608810694811,0.00484544771029583,0.0119126029081876,0.000409087618171099,3.12123290263831e-05,5.22426796944822e-05,0.000276700414347674,0.104309629372613,0.00572531902537577,0.0170332833215207,0.0184575498058066,0.0551486947740357,0.0698556750601004,0.0126602766398116,0.00330974446418715,0.0043774115494476,0.0122202419843771,0.253672542934452,0.0627608693547602,0.098168403202505,0.092469335391693,0.00964463586591733,0.0237110313942137,0.00081418576946641,6.21534570766662e-05,0.000103957641081774,0.000551466586121613,0.208123223328854,0.0113964810347094,0.0338941738444784,0.0367549802743262,0.0433133305560686,0.0675362482932129,0.0132853147753052,0.00339551694828669,0.00425319428225633,0.0115672915802286,0.216381710701395,0.0588910500744476,0.115075808946275,0.0831675721459665,2
0.0263265069614959,0.0901337913636436,0.014091725129547,0.00699499961417352,0.00930888750244379,0.0220645517060383,0.216587847831771,0.0653220727056224,0.0646490429157564,0.128417023785399,0.000695530453396632,0.00815719254701471,0.000199166743645972,4.91387692089147e-05,8.70695317232387e-05,0.000488814069335486,0.0467892653472707,0.00428834892140235,0.00420013745788761,0.0165501116261956,0.0190436625935099,0.0582245599591159,0.00907016489726411,0.00537066964067483,0.00660026352018245,0.0150240671935669,0.152011140335042,0.0487289840772062,0.0488464447577881,0.0838308504112787,0.00138513188631938,0.016240503687121,0.000396738314692297,9.78227780617958e-05,0.000173282347546133,0.00097321442976986,0.093459695539397,0.00853385135220493,0.00835840465587931,0.0329577483205564,0.0216743316503052,0.0653532625136215,0.00861375774391382,0.00618080103246722,0.00716255664297775,0.0158033865397296,0.110645628006569,0.0474779734334093,0.0369458232281789,0.105741614645151,2
0.0127679829702334,0.00461177211967143,0.0121543770115784,0.00485502126399675,0.000854552846986161,0.00185803876160848,0.0170215271370102,0.0376029484778552,0.0201850499627819,0.0159006638068864,0.000163811601413861,2.12570150554502e-05,0.000148433065817467,2.36882850764404e-05,7.23596363484614e-07,3.39821246153832e-06,0.000289517701423131,0.00141880017607903,0.000409335194061097,0.00025317800533811,0.00955880186898439,0.00289936765663033,0.00715512577574291,0.00263742020763375,0.00057269811189242,0.0013007727547099,0.013753010852161,0.0299991889625761,0.0141606436002715,0.0129229563150298,0.000326008338297385,4.24176856943899e-05,0.000295410659629819,4.71379626934586e-05,1.44927767124957e-06,6.83347039989156e-06,0.000577782053319748,0.00282565492178888,0.00081467028782387,0.00050472374780251,0.0106182730810141,0.00344307164627122,0.00637536294237167,0.00247707709076791,0.000712183409949731,0.00207608679220092,0.0169839631667561,0.0274994394327089,0.0106986862666775,0.00796365341216902,0
0.0291030515654569,0.0199942153445644,0.0312418537502141,0.0121429130272224,0.000603664215557125,0.000250975651324362,0.0748666728442283,0.0309555568496014,0.0231790634790229,0.0306353865121726,0.00085124359373053,0.000401632856275321,0.000980921547794653,0.00014814836920903,3.66170482406188e-07,6.30201510049661e-08,0.00562720825995096,0.000961639303945432,0.000539768072673694,0.0009429658250521,0.0178124434476331,0.00865737734500987,0.0159604145381864,0.00536650216052544,0.000317909192247708,0.000120603652757702,0.0412933302349796,0.0219828544350267,0.0105884477527762,0.0199066292166055,0.00169396295786885,0.000799383776836256,0.00195207036570137,0.000294842373158141,7.28484842656665e-07,1.25413913066557e-07,0.0112039527917857,0.00191507296153323,0.00107433619904201,0.00187676634347576,0.0239913102043592,0.0082226083310462,0.0152069811944288,0.00542254793096683,0.000179518802463124,0.000119012331735399,0.0418786098222248,0.0230854572588186,0.0125679925085514,0.0156904221150727,0
0.138787172597195,0.0940561067111624,0.0549134106547046,0.0222735534109209,0.00788589815313904,0.0150277502726789,0.234860999992431,0.0650509135654482,0.0754677671619841,0.0976442111905791,0.0192368580070673,0.00886738014803978,0.00302638473938837,0.000498302318834579,6.24976862703959e-05,0.000226940540065414,0.0553485589960422,0.00424677649701046,0.00566686756708118,0.00958056659514327,0.0837947292987075,0.0523113308253938,0.0361468403063863,0.0131761734440836,0.00392524480708583,0.00775847187225875,0.131399688574785,0.0400823502230626,0.0437522550881825,0.0581424723082244,0.0384025001742829,0.0176694904670516,0.00602507977819621,0.000991831889386778,0.000124364071294902,0.000451623879578791,0.110231301835591,0.0084570245524685,0.0113336545433664,0.019066313560543,0.0833053725298055,0.037434062351079,0.0317556337036029,0.0104611103572653,0.00428091421064967,0.00952120496209834,0.098693024918036,0.0354522194573528,0.0378775289239332,0.0424356522207555,2
0.136132231734095,0.177080993312244,0.0575839878869676,0.0306652618405895,0.0136752807353419,0.0241120538283576,0.367854019732765,0.121656997840168,0.0997702981528762,0.163820808378937,0.0185590796703756,0.0315121321576415,0.00333248897700937,0.000943895910954779,0.000187776432246947,0.000583864305982953,0.135930091908735,0.0148731423333324,0.00997831399309017,0.0269708681452697,0.108645898554695,0.122978840156604,0.0449594884472124,0.0242862957898737,0.0113673096781183,0.0189046916753163,0.281670050648643,0.101790982681855,0.0752792822144709,0.127638211807124,0.0369980810861784,0.0627110049030734,0.00663170930460548,0.00187953402785506,0.000373846984080707,0.00116231815014495,0.270566559704109,0.02959904676016,0.0198823179767624,0.0536720346005882,0.160829506892245,0.138220846649935,0.0657959655533768,0.0300830395642964,0.0104243547839564,0.0176313329868646,0.298461187827269,0.0999350880713223,0.0984287078909563,0.0906329407671753,2
0.0142655662597714,0.0172793430059608,0.00978213670739499,0.00454398746782791,0.00224175610998446,0.00353231130914877,0.0239651327491708,0.0247612616102181,0.00934397098952031,0.0415728717425118,0.000197970593043428,0.0002939794036475,9.37333454937098e-05,2.02231180566749e-05,4.91596444907846e-06,1.23122514228731e-05,0.000563499786909973,0.000610339248539763,8.50224490537466e-05,0.00173693554892579,0.0105346706453264,0.0128397720885609,0.00711286692240434,0.00327378279445177,0.00161311916352895,0.00261143493311233,0.0165681450826358,0.0188712601919344,0.00708371006978814,0.0304843721071418,0.00040048422130213,0.000591084973260455,0.000188951783285989,4.07697540559041e-05,9.91684741352525e-06,2.47277388128067e-05,0.001134991522423,0.00122040152633102,0.000171905745278765,0.00345651670350082,0.015281934039807,0.0200799592628996,0.0110990514305876,0.00511694483560335,0.00238817477870636,0.0040254699954842,0.0225309925063384,0.015468784102748,0.0102619288713854,0.0443658529229952,2
0.00263004611920953,0.00105848859132273,0.00075899973584666,0.000324946422603607,0.000702945032241295,0.000203031771139819,0.00697233754488825,0.0135401188993454,0.000553756922979249,0.00576017857015863,6.92718062611396e-06,1.0952224104834e-06,5.71754588932626e-07,1.04685322778547e-07,4.96505537519851e-07,4.07828193467146e-08,4.8835343724084e-05,0.000184090888193175,3.03474790431053e-07,3.33456484585413e-05,0.00178189542802053,0.000767317108164672,0.000504997100568794,0.000206370044061265,0.000384639888573635,0.000147344828737148,0.00501049423528857,0.0107144375743442,0.000401797887332599,0.00386635002350011,1.38096531339407e-05,2.20982158228761e-06,1.14383396896894e-06,2.09480710244906e-07,9.88149131480697e-07,8.17994888013513e-08,9.71765892380452e-05,0.000366478638028594,6.0859407742822e-07,6.63577972517823e-05,0.00153925620046621,0.00115261214515396,0.000564695964250662,0.000269031388635221,0.000236124395627263,0.00022486401359579,0.00340987795042264,0.00747392148219634,0.000612998871117782,0.00389407379163469,0
0.0477907806767892,0.0530926799493128,0.055070884736676,0.0161827369736483,0.00234892446967368,0.00504546635225171,0.0976485062700626,0.0322922208458553,0.0356330088031739,0.045562712500447,0.00229543560609535,0.00280006134172438,0.00304645694332868,0.000262798878957824,5.52701895312017e-06,2.54944801620364e-05,0.00945665654050613,0.00104365976231611,0.00127180683355995,0.00207821947853128,0.0261732786592734,0.0185315504218927,0.0186433581997714,0.00550750457364617,0.00097711803537489,0.001664231025252,0.0522602986569849,0.0238584441255788,0.0137332208214599,0.0145758544901719,0.00456783970730484,0.00560475814352959,0.00606392051868411,0.000523350927811296,1.10149136569449e-05,5.08231954856691e-05,0.018944116263053,0.0020811954971992,0.00253515801388774,0.00414378711189966,0.0243638347153101,0.0217578103959324,0.0229776851675857,0.00833149961446015,0.000874763601950565,0.00236425023517445,0.0516483480161746,0.0188877791452378,0.0158749410502304,0.0167069367016878,2
0.118730325416636,0.242100778799045,0.0417216380150311,0.0166679948264753,0.0123234365750309,0.0287592585948046,0.357237087279899,0.109964905764179,0.161261419724836,0.161746587836064,0.014167611900722,0.058905353617551,0.00174914175848653,0.000279171413206714,0.000152547227511738,0.00083084936577636,0.12825345334579,0.0121500398974504,0.0261359011609863,0.026271763894146,0.09598579515961,0.191919817493052,0.0338977905599714,0.0142723281280797,0.010071525325401,0.0235209571722847,0.287151694170496,0.0879991766915193,0.129323123437936,0.124270570705565,0.028193637223591,0.117222334271153,0.00348102771115421,0.000555596471117689,0.000303651561469976,0.00165379001960611,0.255222412286954,0.0241812467673619,0.0520102664579788,0.0522992819580633,0.0905036899971852,0.218021539267489,0.0417316555075626,0.0185475449947257,0.00957264503916552,0.0189751100500077,0.308028477192825,0.0896743104265697,0.159701211488535,0.0804397387761818,2
0.00523275389825534,0.0700204449484152,0.00793958911178612,0.00380939589746811,0.00292118698352884,0.0062193432726676,0.112364037310516,0.0331908792731901,0.0312586361478588,0.043539900602751,2.72377715808964e-05,0.00488794741349384,6.29192614240822e-05,1.44347573579733e-05,8.4154648378683e-06,3.81311344722335e-05,0.012637700293491,0.00110043048369766,0.000978975632872249,0.00190193556677732,0.00425904044659855,0.0539942359751951,0.0059265214016525,0.00267066832200799,0.00210115811312231,0.00457445262343326,0.0912152486015453,0.0270499120614611,0.0236285614093366,0.0359261607008999,5.44830489278538e-05,0.00976630197694956,0.000125640060327337,2.88724562578995e-05,1.69062961867998e-05,7.66198131201839e-05,0.025200141774101,0.00219656189285562,0.001951173889591,0.00378814502019078,0.00465126245982018,0.0833587653500992,0.00944677954046022,0.00422933671949482,0.00322838610216598,0.00722427967082376,0.14213345963296,0.0345064918183084,0.0371010026469505,0.0521404759875497,2
0.00242055167304012,0.00504616908530689,0.000890330621244725,0.00032739488387676,0.00037166385192658,0.000392210795065949,0.0101945187964366,0.0137978681868079,0.00308114306689372,0.00570954851230208,5.85472264584613e-06,2.49057837668224e-05,7.94144166457598e-07,1.06819119897505e-07,1.38524563749428e-07,1.49739944635987e-07,0.000102602716365408,0.000190320781324196,9.32551365751711e-06,3.27611582270326e-05,0.00182008043400598,0.0036231731749837,0.000658812523939732,0.000181509686318745,0.000209271355605141,0.000267412098729378,0.00811119837730423,0.0112008302465085,0.00222662825241738,0.00408688201594605,1.16823553702813e-05,5.02441656897846e-05,1.58069529305863e-06,2.1315268166481e-07,2.75965828188736e-07,3.02820135109945e-07,0.000205990799728461,0.00037975028151158,1.8772176922952e-05,6.51927863742366e-05,0.00157041833967721,0.00558101647910297,0.000584551832614737,0.000251313425908501,0.000214019537837133,0.00042157382742198,0.0083588742510579,0.00723808190350906,0.00341928167455672,0.00636411342835994,0
0.0451104403750105,0.00855113627191484,0.00257708520818847,0.0023046501411334,0.000499718495399422,0.00108737025727911,0.0816280861217351,0.0186373108112237,0.0101389817224037,0.00744032847910985,0.00204290159154507,7.30350180789665e-05,6.66953673085453e-06,5.29113077021509e-06,2.50973438318573e-07,1.17309350843787e-06,0.00669263685241065,0.00034883843801128,0.000103232387220458,5.52859338077742e-05,0.0306690405925287,0.00223194587872432,0.000780701948304705,0.000694462915659324,0.00020807205201864,0.000257673744864695,0.0554474182992871,0.0141789541314156,0.00536112455679363,0.0025749852814564,0.00406763005933803,0.00014569971709443,1.32709036412889e-05,1.05474956041034e-05,4.96946834741797e-07,2.34942499144524e-06,0.0133222064504861,0.000694442815018853,0.000205504719308737,0.000110327631762581,0.0232910471594463,0.00248442036075052,0.000815071299233873,0.000735091999597782,0.000129420173514617,0.000371945644358692,0.0528848951923918,0.0131047560025437,0.00441199476907113,0.00248094191526636,2
0.0934674800278704,0.150684650013397,0.0350957880944988,0.0108977244845799,0.00430625763802203,0.0145871222051717,0.274448518885072,0.0724718792360669,0.0858426756066686,0.133293824854818,0.00877318768308084,0.0228045133982811,0.00123731996822053,0.000119170539965732,1.86274572236389e-05,0.000213653395657031,0.0756725449225636,0.0052771315282152,0.00740598434394918,0.0178564786591708,0.0727877573618978,0.115802387926309,0.0280698555516574,0.00892969109212641,0.00319416994427835,0.0115820774638785,0.223422333584275,0.0572104029210798,0.0648107315025968,0.107867976927719,0.0174654869608411,0.0453963421853814,0.00246282193757012,0.000237329555356527,3.70771539884889e-05,0.000425347494719401,0.150611225959385,0.0105028004171978,0.0147369664194421,0.0355314525299234,0.0899776965417997,0.0998677445127303,0.0351044816576817,0.0093415151400658,0.00254544569304636,0.0108928211381164,0.179923828459876,0.0529464454356093,0.055493719755636,0.0751349113833989,2
0.0124708253435831,0.0467034539066687,0.00793357388446373,0.00124658297197756,0.000839356511820318,0.00457875119763244,0.167529806564183,0.0339349274991765,0.0396475560775121,0.0836961896972931,0.000155116786121188,0.00218447177659222,6.28362465570634e-05,1.51788431768776e-06,6.96981459033948e-07,2.09394909579727e-05,0.0282065034904987,0.001156610045972,0.00157978816815067,0.00703992753113068,0.00836188880510128,0.0357427906917855,0.00567001445336491,0.000813942106663956,0.000591355977119197,0.00231778843207984,0.120012861137814,0.0270299329490977,0.029666508239626,0.0453157971375613,0.000309853450782402,0.00435462574177838,0.00012545140496314,3.06419944239929e-06,1.39561519631405e-06,4.17988230740409e-05,0.0561308615800474,0.00230240193865532,0.0031436717418285,0.014009552970442,0.00801718243268911,0.0441919713035149,0.00842509615675628,0.00130245293496105,0.000640810471346549,0.0023199162629267,0.134956078450847,0.0296855171295883,0.0305900056426299,0.0496649870560984,2
0.00207040000019883,0.00436519813340293,0.000858975875256999,0.000330665454089488,0.000648330496302349,0.00020338500049309,0.018540142065448,0.0180548125971225,0.00526481769358694,0.012520282344589,4.30809418912356e-06,1.89201796145555e-05,7.39716261670036e-07,1.09840672004534e-07,4.22381381595544e-07,4.04771567584968e-08,0.000339810919445073,0.000327594424141656,2.77053629199227e-05,0.000157543321209546,0.00149983393891353,0.00305808349152694,0.00062375742465685,0.000140976303169331,0.000373056782616212,0.000146085104644893,0.0143127182220449,0.0147355392514699,0.00384727747880906,0.00936110069181392,8.57184935927284e-06,3.7878736153664e-05,1.47009660126262e-06,2.18631110215245e-07,8.36440509569201e-07,8.16399110277372e-08,0.000681841264988295,0.000651928169769332,5.52837790420985e-05,0.000313509420905908,0.00101666077986135,0.00487650925345032,0.000840300435165378,8.43981483212727e-05,0.000227407220991749,0.000225816687404648,0.0177528639098682,0.0165080098920627,0.00588660798026349,0.0101358186024682,0
0.0188374147627662,0.00517833067543937,0.000681474890515156,3.46828991084467e-05,0.000342295396883218,0.000231333007439655,0.0636424723438969,0.0191887203216881,0.0198012125109871,0.00629146436486295,0.000354699936663508,2.694985196566e-05,4.66617520787928e-07,1.20893713734423e-09,1.17684874774335e-07,5.37769344000938e-08,0.004055380904334,0.000369965940148749,0.000390477905489644,3.97421896671478e-05,0.00764282667187696,0.00188437536575344,0.000370635936448733,2.31167424071085e-05,0.000163349608302038,6.91082405565371e-05,0.0419199799147351,0.0155110894579256,0.00785895468456646,0.00500480884956085,0.000707691072925767,5.36298068112221e-05,9.26156436432967e-07,2.40566149179158e-09,2.33206397218579e-07,1.06746486218289e-07,0.00808513699706245,0.000736315895585908,0.000780590435744073,7.91239012525778e-05,0.00740980110002812,0.00205082881127399,0.000188647293475784,2.9072576828337e-05,9.2407917257923e-05,3.87926005679973e-05,0.0299129816371589,0.0135954933544719,0.00812138383136357,0.00378451155371321,0
0.0796448388184856,0.123256239117474,0.0329531192247236,0.00933821080102144,0.00439592977032327,0.0156475270050741,0.289717092641305,0.0556334737412744,0.0738767365082706,0.164235449955771,0.00636864628300971,0.0152590832563684,0.00109067479425779,8.76131359577332e-05,1.94055226813145e-05,0.000245688377073792,0.0842378463727797,0.003098253285494,0.00547179515666236,0.0270918525008233,0.0618839108531316,0.0908291053185982,0.0260194495858793,0.00675517730512764,0.00323159805758795,0.0120296308653638,0.240089289482443,0.0458584906820338,0.0610239322301412,0.126256564103792,0.0126793682294025,0.0303741113041011,0.00217111993789769,0.000174345788996416,3.86201851479145e-05,0.000489304986819967,0.167741299803647,0.00617782416867996,0.0109020882415299,0.0539264046151023,0.0509980449677256,0.0701504358490211,0.0268255474804692,0.00552728582281947,0.00279980066265381,0.012687793450261,0.176877066842782,0.0409547529516373,0.0491019463082935,0.114620912897517,2
0.0333810910563511,0.0750608515613139,0.00890824927263059,0.000703956384762497,0.0009873887201805,0.00644064381403275,0.162810340365022,0.0461158787325119,0.0514469689858546,0.0984917613328524,0.00111732674124321,0.00565984136505522,7.90848928211634e-05,4.69710361838834e-07,9.64189548195133e-07,4.13151026231258e-05,0.0265923740971799,0.00212269052695315,0.00265485291286844,0.00974509675849498,0.0252550023219809,0.0577030374372623,0.00601289295345552,0.000393663938543119,0.000716961768071975,0.00323133701276913,0.103181876752121,0.0360297889702167,0.0418704823019791,0.0802013783999663,0.00222602074538985,0.0112656298597139,0.000158046104046293,9.62764543903826e-07,1.933151799762e-06,8.25824368726742e-05,0.0529638711162621,0.00423874568301082,0.00528836885433622,0.0193961212443183,0.0287241511924448,0.0733741730300281,0.00467130924968962,0.0005216188427395,0.000878636662975575,0.00390934576101908,0.091545306683179,0.0406325496241873,0.0413255814954916,0.0740891715628295,2
0.00453245171065811,0.00786785426726048,0.00054812190515898,0.000234091429785019,0.000603056352061989,4.81653349857463e-05,0.0106524251178132,0.0167333095765753,0.00680287633274311,0.0178709338516344,2.04289040684904e-05,6.01737050079222e-05,3.01668238035889e-07,5.50534740787862e-08,3.65477548215868e-07,2.26544546667423e-09,0.000114036694620323,0.000280677706739028,4.62277975080371e-05,0.000317555216179115,0.00275071350148144,0.00519779738541025,0.000308307225707692,8.42543715187807e-05,0.000327937573759447,3.40927036068395e-05,0.00820706079103631,0.0128515835215945,0.00474299501901063,0.0129915819906435,4.08685128639952e-05,0.000121775188878789,5.99656360617089e-07,1.09295212163107e-07,7.27065115776778e-07,4.57399727696361e-09,0.000226930213156647,0.000559275255225003,9.22746664894428e-05,0.000635320945819919,0.0023996678353195,0.00827295260256018,0.000294987532029744,5.49990724745058e-05,0.000207056203614658,5.28555163552467e-05,0.00721558546353649,0.0104574503596494,0.00735004109380994,0.0154623599497314,0
0.00209140039721225,0.000330845814853527,0.000554908632785949,1.23059903575328e-05,0.000547793801288555,2.39280067483361e-06,0.0089964824817859,0.0135276205064913,0.000362196387633576,0.00472179173470509,4.39340779209466e-06,1.06965217057019e-07,3.09428618156536e-07,1.50003673750169e-10,3.0135647880505e-07,5.62423372428477e-12,8.13418282223191e-05,0.000183832005403716,1.31844402405397e-07,2.23738642966238e-05,0.00136439331818166,0.000233407898490545,0.000282839809767301,9.05800878806858e-06,0.000247999639039958,1.72744476237465e-06,0.00691746504954386,0.0109227408657775,0.000254512802396389,0.0034540642479963,8.73306310487936e-06,2.15888780327331e-07,6.15805049045796e-07,3.00687551589647e-10,5.98751787149963e-07,1.13215134635464e-11,0.000161871805129551,0.000365909358668593,2.62362671698427e-07,4.45519980540624e-05,0.000812598108083815,0.000367092600888053,0.000165290210194974,1.39319308486974e-05,0.000167074678991313,2.65269268375526e-06,0.00481235204176908,0.00611217930471024,0.000400155070222662,0.00216143890914137,0
0.0582526407549684,0.0820333683371874,0.0476888457406114,0.0212323223923377,0.00464719062383091,0.0134576044125515,0.225364173966183,0.0684660538393096,0.0767097900303809,0.0906587567100984,0.00340174311780115,0.00676101982931503,0.00228337565871466,0.000452266014946305,2.1704397146044e-05,0.000181966753770584,0.0510359954175092,0.00471114062027557,0.00591269257985759,0.00825958635522035,0.0371039290412964,0.0510652883909698,0.0303636579334067,0.0137049197162553,0.00284649506947768,0.00789383036216832,0.155456247890784,0.0489874508230664,0.0499441637294668,0.0500598237298738,0.00677779484901783,0.0134566783284078,0.0045461815039562,0.000900812185809423,4.31920810780644e-05,0.000362157857786933,0.101568709685281,0.00937518025818663,0.0117673775893563,0.0164350075394896,0.0287093024374671,0.0443693846696844,0.0333771785318245,0.0157971512183049,0.00237050911860197,0.00816879732752613,0.114172890624974,0.0522267457335102,0.0471174851036442,0.0389411899571043,2
0.0626202465915133,0.0971214916803969,0.0216510743501812,0.00890811879887929,0.00230436178658065,0.0111939030545493,0.295458627223268,0.065851043218493,0.0787375669622252,0.14331885757862,0.00392205507494937,0.00947755281780061,0.000469100619236246,7.90669229373422e-05,5.33653836591829e-06,0.000125918705718868,0.087715923285626,0.00435608281946936,0.00622361794541485,0.0206230770623022,0.0488023511929079,0.0679274623710675,0.0145261567363216,0.00658987988172655,0.00152057437621249,0.00817807682098744,0.24688802025919,0.0549786630403062,0.0565411534183829,0.11368504621817,0.00782340585140594,0.0188621639306705,0.000935473849777279,0.000158019907192094,1.06135488544244e-05,0.000250592398435261,0.174572945216916,0.00867058755196402,0.012392073409433,0.0410596381421653,0.039602565295073,0.0614529897373634,0.0190605339129917,0.00986415503425121,0.00207568753702328,0.0108189360107777,0.302502289116003,0.0748096989072102,0.0592884378545924,0.154035796753492,2
0.018929402640042,0.0292366838005714,0.00219890858677915,0.000568266203207612,0.000640604078349696,0.00063127186148451,0.0436392143474051,0.0182497497435165,0.0156727588737076,0.0293487540312676,0.000358221060518948,0.000859030838247624,4.85054225949082e-06,3.19812809967575e-07,4.12290118182069e-07,3.9089734519521e-07,0.00186880469166764,0.000333673270633869,0.000244930604094172,0.000853197199340234,0.0135202788432997,0.0180096366698547,0.00128512836860787,0.000400395724669272,0.000347357633116752,0.000453621432967756,0.0317820206916509,0.014626638596224,0.00940915773293841,0.0212760651937186,0.000714744178457207,0.00170949395791917,9.66075716031393e-06,6.41136067821521e-07,8.20599807410287e-07,7.87446526543327e-07,0.00376381486870392,0.00066505730818022,0.000489333894952151,0.0017102154751254,0.0214284702314938,0.0169312006772967,0.00149023555186558,0.000513972741244833,0.00022111755441227,0.000718722094792521,0.0479912179833762,0.0127958229321989,0.0136857891856821,0.0293203538165961,0
0.00225289824542812,0.00211771288033663,0.000645363316922649,0.000458534988501635,0.000471462082716313,3.57309540674287e-05,0.00660704735073033,0.0124522069383472,0.00103257513903517,0.00693092954595698,5.0912193360071e-06,4.44039062840837e-06,4.18515793944816e-07,2.112457101221e-07,2.23351626677484e-07,1.24556410896405e-09,4.3661107510182e-05,0.000155694523463509,1.05055429028033e-06,4.82791797218298e-05,0.00144724519509309,0.00145490134488969,0.000352019563489674,0.000201264855193429,0.00022431756442774,2.53406200255965e-05,0.0050814596293884,0.00996100500909902,0.000716153091927077,0.00517899011557932,1.01412648300546e-05,8.90275652257878e-06,8.28714702273291e-07,4.19344224603472e-07,4.43490362750039e-07,2.51603515805657e-09,8.70856906026053e-05,0.000309969111740832,2.11148926563685e-06,9.60456789974035e-05,0.00107167407736351,0.00234388870101614,0.000188089783813664,0.00012677885884701,0.000123739852481522,3.9645454289898e-05,0.00340211529384375,0.0065160799133084,0.00114634730452062,0.00303643679224652,0
0.0657226515311956,0.103408515628025,0.0256041704319321,0.012549145429777,0.00233091516900905,0.00969515982911588,0.22846992160898,0.0526151828860448,0.0699493748114253,0.0409444012166109,0.00434070994513475,0.0107111293550055,0.000658573703038725,0.000158271560270692,5.44082253596479e-06,9.38815144737947e-05,0.0524571340839856,0.00277638845281325,0.00491659513660832,0.00167670756491992,0.0474574589700793,0.0516344090840191,0.0144377397631939,0.00620945537522548,0.00114623981952954,0.0053157195024033,0.150247580499896,0.0374385723963908,0.0431959799904559,0.0243709758854155,0.00863844686407879,0.0213508626353787,0.00131083349209948,0.000314961101028441,1.08467548506436e-05,0.000187403256018006,0.104393005437956,0.00553066421513921,0.00978480317697995,0.00334421574329265,0.049268044028123,0.0550502044317048,0.0122556400995479,0.00654813259583783,0.000960124449187724,0.00591523775578414,0.16295105734498,0.0387732559630458,0.0519183019513921,0.0197678924057213,2
0.0768557160737493,0.140638631716344,0.0235126044987318,0.00551871935595363,0.00200388251455156,0.0113292148491962,0.198685142059236,0.0471272395761467,0.0732361605190994,0.133338917587408,0.00593510502471483,0.0198376451330324,0.000555592516105894,3.06072080705771e-05,4.01443666634462e-06,0.000128061819541842,0.0396075991482532,0.00222395972281993,0.00539043563737349,0.0178616078222254,0.0562581864752213,0.0997756802197992,0.0191011796328897,0.00464937090719158,0.00132635265944059,0.00817538575663976,0.159017874040893,0.0361181038878533,0.0582213392203131,0.100938268762824,0.0118121289446832,0.0395172677755537,0.00110546540381424,6.09094245817112e-05,8.00137317909315e-06,0.000255740139837313,0.0788852941025457,0.00443378661953529,0.0107266685353685,0.0355514133342991,0.0405848396340547,0.089406030394398,0.0171687054560223,0.00440456159199047,0.00132916141311411,0.00644781559098847,0.092876079269992,0.043401126167381,0.0573569144222288,0.0751701733469053,2
0.0117336049468787,0.0226680922700804,0.00470637294653863,0.000747919243015648,0.000469362246519949,0.00151292808321795,0.042892386505978,0.0184912957907364,0.0184778288684426,0.0249044540207905,0.000138051407367613,0.000516213496601834,2.21377924418524e-05,5.57001375363636e-07,2.2133072797834e-07,2.26545117893137e-06,0.0018118012521938,0.000343646150600129,0.00034257586969574,0.000623337376844786,0.00880964951651147,0.017218296744725,0.0033476772409403,0.000530153150457717,0.000222623656482024,0.00111168479420041,0.0288117546590278,0.0147895676425973,0.0105106557196369,0.0185819728754009,0.000275036943934331,0.00102745873618612,4.41747733046496e-05,1.11312223754427e-06,4.39405226242037e-07,4.54303318139709e-06,0.00364248888357661,0.000683855302300963,0.00068228997339543,0.00124044383060653,0.013351133426608,0.0263794907003059,0.0052270193069301,0.000749585828022102,0.000131873308812879,0.00171685671455368,0.042154968643499,0.0136680256610589,0.0101371185301275,0.0174239374019599,2
0.00216357730497209,0.00155513131998215,0.000602196199773526,0.000461515130290787,0.000678637487477447,8.60850893639192e-05,0.00682578118357686,0.0130849292193596,0.000515630104838384,0.00512495327584813,4.69892165822467e-06,2.42919055715166e-06,3.63584548984162e-07,2.13915334968154e-07,4.6285672161689e-07,7.27604361302042e-09,4.68211737501578e-05,0.000171675955545935,2.66870007684979e-07,2.63929529894641e-05,0.00130368553860111,0.00110532457443753,0.000376920376368779,0.000215152144410674,0.000359437847297595,6.21192770108567e-05,0.00532425402501148,0.0106490953215031,0.000342818019271181,0.00391784455550905,9.35622540612192e-06,4.83532085055287e-06,7.21750293929155e-07,4.25841954343149e-07,9.20845237599466e-07,1.46501921181417e-08,9.31758392573172e-05,0.000342022346349637,5.31233889133088e-07,5.25254606556315e-05,0.000834461257690851,0.00171947873799914,0.000336196766967535,0.00012490920684168,0.000198919577058676,9.54476960955456e-05,0.00389270799632608,0.00617246542486799,0.000528350781290234,0.00273583930391786,0
0.0109377113095132,8.49154271365348e-05,0.000648149378043407,0.000235891400809436,0.000466408634019451,4.488356652179e-06,0.0334536398415198,0.0175114863265688,3.17312073425714e-05,0.0059184435988021,0.000119926904628985,7.24470808632082e-09,4.22178924729618e-07,5.58981812484313e-08,2.18584715892278e-07,1.99338084852965e-11,0.00112261311051135,0.000307230856314686,1.00413191889744e-09,3.52027414977176e-05,0.00741812649387329,5.93917782277363e-05,0.000339916834295118,8.54920680151255e-05,0.000220853279243026,3.25766706427894e-06,0.0226474932848688,0.013277544351349,2.18018846450747e-05,0.00417364874132999,0.00023896079437494,1.44186406208636e-08,8.35602635464798e-07,1.10977167064862e-07,4.35028418450263e-07,3.99788350892908e-11,0.00223611459695301,0.000612344524775925,2.00593177530904e-09,7.00461911796906e-05,0.0055275839851006,9.38655806485024e-05,0.000175797270223751,5.24889084619777e-05,0.000126542325782509,4.97102682600663e-06,0.0197740793315123,0.0130375471794899,3.51601787118958e-05,0.00269863533255438,2
0.0629994721199458,0.146149661609022,0.0332997225696185,0.0113449447347025,0.00358547259494502,0.0118386570400972,0.281232495016608,0.0433915765449288,0.0644720954369112,0.113797037056501,0.00398874830214024,0.0214670335671217,0.0011106532509687,0.000129289551698077,1.29198013023652e-05,0.000140855121671899,0.0794580907573222,0.00188825122769213,0.00417267422310545,0.013002848302831,0.049788989966825,0.104668482079269,0.0245735927224407,0.00799788075385731,0.00234477815445116,0.00843604591915846,0.214909742999213,0.0312492882352238,0.0479084583714661,0.0808162470142092,0.00793677525236691,0.0427189065087521,0.00221375466637216,0.000257350237766917,2.57106950958426e-05,0.000280303406724925,0.158145506609682,0.00376162930816754,0.00830844941878522,0.0258867755628446,0.0345661906542809,0.106210496993923,0.0195549047654548,0.00642329022984928,0.00207766864574599,0.00635483893018714,0.172236802953234,0.0224332620408734,0.0418482537948875,0.0593130469676147,2
0.0380002359547316,0.0539065987444279,0.0205078877864868,0.0037773755337928,0.00093821181718904,0.00457177856902014,0.196819584324902,0.0346892827407247,0.0312813072097068,0.0998643562625231,0.00145123081962401,0.00291940437325769,0.000418970200564447,1.42852674623805e-05,8.84274075064923e-07,2.09898068281591e-05,0.0388972518670438,0.00120875148478639,0.000979266959359145,0.0100121655453591,0.0210685353435414,0.0428976775292922,0.0145604451624482,0.00286209628954346,0.000688776669888896,0.00358662415788467,0.147350482725841,0.0257238428815182,0.0209675028366333,0.0645875204684241,0.00288790946846445,0.00581065621858427,0.000837400604011354,2.84818668320906e-05,1.75244237787002e-06,4.17840070814307e-05,0.0774406521384518,0.00240605217907452,0.00195282456000618,0.0199345405060479,0.0261441176252699,0.0474635156276757,0.0159430120851034,0.00434094666542122,0.000726870297583399,0.00315400791720606,0.163161893193693,0.0288567318043491,0.0261138550212824,0.0615288809093079,2
0.0026685973680693,0.00558111166459972,0.00199453441944175,0.000332834697163,0.000501904408074027,0.000406063835982307,0.0146929341727104,0.011883830528704,0.0011063399812163,0.00655614997454981,7.15692683090173e-06,3.05653806024335e-05,3.9979159520781e-06,1.1091102471479e-07,2.53154315735535e-07,1.60854098093581e-07,0.000214204548233402,0.000141909804390942,1.20648633257402e-06,4.315745107748e-05,0.00167313331198654,0.00403210734171,0.00148099218478472,0.000206457118075181,0.000228226021958681,0.00028865511194639,0.0111713888422617,0.0096603911209529,0.000822544972084694,0.00471679116948427,1.42424540651421e-05,6.15609555738042e-05,7.94935169485698e-06,2.20974721047615e-07,5.0130080489029e-07,3.24937510911938e-07,0.000429012157944509,0.00028242202865846,2.42420961389584e-06,8.59216365993579e-05,0.00119615794069277,0.00620372856966328,0.00207265408129251,0.000279462471109412,0.000135059138694728,0.00045117973326995,0.0131237809765144,0.0057354330844669,0.00126257672597726,0.00275055357610515,0
0.0188317340092644,0.0065832323099385,0.000601879679358808,8.59266046611772e-05,0.000509464910236943,0.000319662611828401,0.0444568355956755,0.0157098356883892,0.00656359855252602,0.00778082212853752,0.000356024983084127,4.34592950629798e-05,3.6404146052507e-07,7.42048223973552e-09,2.60847389511282e-07,1.02663075509421e-07,0.00198241878135477,0.000247434930248778,4.31612362939452e-05,6.03785343422745e-05,0.0100207745161776,0.0017201666296914,0.000289123476437762,4.6076959196885e-05,0.000232600654071027,9.50622855310544e-05,0.0200323720931362,0.0122375356364748,0.00160273912460093,0.00388845908730828,0.000708870883311552,8.65647910883487e-05,7.23863955900762e-07,1.47629308281451e-08,5.18752685401314e-07,2.04333942249248e-07,0.00394868475543532,0.000492970968704719,8.60053558513971e-05,0.000120607610899684,0.00876489026035297,0.00233937880114126,0.000168145675584685,4.50729982069313e-05,0.000145909539178264,6.73907094470426e-05,0.0177887707589494,0.00809027409126679,0.00200463546194046,0.0042994126859607,2
0.0912820409308696,0.120783124306259,0.0890435162440626,0.0353175744440099,0.00645917812180228,0.0163943413589277,0.258972277068829,0.0788454675050487,0.0690421333640258,0.15243265903347,0.00837421873742015,0.0146278946541785,0.00796542475204716,0.00125235560125879,4.19252216338996e-05,0.000270103091988408,0.0673539215682336,0.00624588833799346,0.00479017973150847,0.023348263734974,0.0740738754426498,0.0986815755667007,0.0710515776281398,0.0280004440467365,0.00466058428309901,0.0126489548659072,0.214882488567143,0.0604895754990089,0.053808564480574,0.117474267829238,0.0166647573536932,0.0291430460796182,0.0158543152171805,0.00249340683952108,8.34365761381339e-05,0.00053751681889095,0.134080279742533,0.0124312581850013,0.00953304181493816,0.0464669708421947,0.0702202623226709,0.0998612271223035,0.0862156656893091,0.0308774642734829,0.00363306949921021,0.00999507876181849,0.16444062879568,0.057155408037147,0.0499398357423603,0.080087981719969,2
0.0585901737973309,0.0481419112411179,0.0143808338017642,0.00757858400902837,0.00109488575563491,0.00532248375666571,0.212158886859594,0.038228831855197,0.0393867121790879,0.124855475910566,0.00345005532752632,0.00228614087860627,0.000205288558825017,5.66535244742156e-05,1.19997199854987e-06,2.84624975668891e-05,0.0451504514775258,0.00146874484692614,0.00155790995926943,0.0156634343761296,0.0440789481535255,0.0357526949657269,0.0110215513159094,0.00561024664716913,0.000867702079448902,0.00392187095924937,0.17516975754475,0.0301130708016542,0.0264272708353684,0.0901331254270133,0.00686536386177432,0.00459228397938373,0.00041106683701211,0.000113804767755103,2.3915424295955e-06,5.6648963248144e-05,0.0899358213338951,0.00292284136034303,0.00310135621798953,0.0311732674909942,0.0602316965013284,0.0393488254517997,0.0173108996715003,0.0088565472036905,0.0010374807164733,0.00498345936011706,0.186574669213249,0.036389081500662,0.0241425583909574,0.102247250114899,2
0.00526426295165997,0.00666200444052191,0.00110853755862122,0.000458333424061202,0.000564610677386294,0.000378532572886943,0.0278026327356175,0.0146045986044002,0.00451513141036189,0.00842270770480402,2.71673604681335e-05,4.35632953389588e-05,1.20711369997897e-06,2.05377948085914e-07,3.19922394725523e-07,1.4028031128618e-07,0.000759802523356252,0.000212714386247545,2.00803648897237e-05,7.11156603199861e-05,0.00390142729098641,0.00484083849251144,0.000820281086775217,0.000334266628802617,0.000299696337081242,0.000267309462035232,0.0202860748163979,0.0118314143284343,0.00327101527145652,0.00625958455849141,5.47438640665524e-05,8.77277626227755e-05,2.42870943809429e-06,4.14420567318065e-07,6.3710745423629e-07,2.82864772700396e-07,0.00152897045084053,0.000424943870568588,4.03662640949147e-05,0.000141702087070121,0.00558053397182975,0.00762809958223095,0.00113877513340424,0.000520601702467628,0.000158241597648715,0.000421688531998071,0.0301579763493321,0.00860528462877625,0.00519693747041353,0.00745028214994669,0
0.0183915743110586,0.00670775642392718,0.014167735515687,0.00406901533039846,0.000560649636903198,0.00179270300091975,0.0755546187078085,0.0205775809183498,0.0100969141730931,0.011332543142735,0.000339409573063695,4.48276954135751e-05,0.000201471209014312,1.65873972313166e-05,3.15714462984822e-07,3.22986327130168e-06,0.00571671307155675,0.000425055237327937,0.000102177578731509,0.000129069044916466,0.00724395335125653,0.00242559569126719,0.00398543613719792,0.00104870084735459,0.000296609878794712,0.000601005011785028,0.0411609711799502,0.0158309772232234,0.00304125356847214,0.00527479333424202,0.000675962412035352,8.95807320607161e-05,0.000401177511613393,3.30613299728276e-05,6.27417244901145e-07,6.42728186611831e-06,0.0113962090883958,0.000846365902163763,0.000203614265436202,0.000256844549216012,0.00787218604562608,0.00270963530226623,0.00581535255057679,0.00159726942535333,0.000162255834402279,0.000730957002287399,0.0354443436957605,0.011900785857126,0.00404328185005617,0.00425008515421155,0
0.0936003392806366,0.290429502976145,0.136394429524893,0.0419636143756961,0.0173425668661086,0.0392864322145259,0.3831829898934,0.168288796733595,0.23426734566886,0.274214542356818,0.00878857433355495,0.0847440654085862,0.0186911114389142,0.0017695462318606,0.000302269441534162,0.00155069136604477,0.147376338435272,0.0284486775375795,0.05515029465425,0.0755332796944058,0.0711941822546649,0.225205411566628,0.102788771670761,0.0326824810968521,0.0138186867984193,0.0316088942673532,0.304507872476519,0.128907619739438,0.174108691290148,0.213561095813862,0.0175055247559962,0.168669608122141,0.0372010194154145,0.00352163949689869,0.000601522616138841,0.00308628523615068,0.293466434226651,0.0566273841715497,0.109755453194914,0.15034727328774,0.061928383055485,0.17709828914497,0.0697976881679509,0.0274141695851782,0.010536417556443,0.0196246738398618,0.256711334356303,0.136355767829614,0.171361218159787,0.180678998861137,3
0.032043595840528,0.0889785957818714,0.0302124691002786,0.0072457567010208,0.00195784183010795,0.00913871323682565,0.207312509630966,0.0424746239085597,0.0531520693278177,0.0786346423902535,0.00101128888806116,0.00790962725931182,0.000913229526592456,5.26844349879589e-05,3.84831523062113e-06,8.34730234216153e-05,0.0431547156269884,0.00178845550534498,0.00283007671283613,0.00617703032771339,0.021837515753212,0.0579386390262643,0.0207409663239483,0.00579426039765412,0.00141582480187093,0.00507875192789932,0.146903772218284,0.029026280383637,0.0373749230678338,0.0481956212819205,0.0020330211591951,0.0157847390130959,0.0018214362926393,0.000104917409372758,7.65833311916178e-06,0.000166562452006075,0.0859156893727272,0.00358334941743042,0.00564028984533427,0.012329550112417,0.0289028516892796,0.0496362110011461,0.0162769125749101,0.00713656474483005,0.00184680032656713,0.00497416355915074,0.160510186216052,0.0307032823544551,0.0404165057870301,0.0410827473382974,3
0.0012887289388918,0.00556589091355067,0.0011765212070883,0.000683948756758218,0.000665621922236132,0.000265884416223425,0.0241166596487804,0.00851173353096774,0.00688033797916359,0.0102660328162776,1.62473955146094e-06,3.05984995393729e-05,1.3774904024862e-06,4.70061564667545e-07,4.45143309571266e-07,7.08980563024592e-08,0.000575951915842611,7.27608699256221e-05,4.75658357307799e-05,0.000105909804630737,0.000892653076407856,0.00405395033318235,0.000901796889341487,0.000481026416993548,0.000364054438345039,0.000186785653267532,0.0168357858022368,0.00655796526149708,0.00497145386797646,0.00768108234073408,3.27724967447421e-06,6.1424311674351e-05,2.754540899172e-06,9.35467181950836e-07,8.8459012817518e-07,1.41234186484921e-07,0.00115466465940575,0.000144838110234781,9.46644446128391e-05,0.000210770324364044,0.00134787071530662,0.00642093503174463,0.00109703798339169,0.000759303263720901,0.000197810637317769,0.000298259357649589,0.0270365080259413,0.00552148521738998,0.00779395247715082,0.012126813839691,0
8.06737663580967e-05,0.000327397151189414,0.000711032864944712,3.77447348363588e-05,0.000517853560866295,1.50759273019983e-05,0.00670904533378567,0.00806490053687348,0.000471982861455584,0.00071181519948413,6.48697920050775e-09,1.04654362182842e-07,5.07908997602499e-07,1.42766936279285e-09,2.69518657625982e-07,2.26790070241988e-10,4.52372700106947e-05,6.53619450358183e-05,2.23793913886247e-07,5.06626827384193e-07,5.96698665139455e-05,0.0002315208693053,0.000416634732900968,2.60743326567996e-05,0.000258344876916943,1.03487223556809e-05,0.00457501965763832,0.0063379593781309,0.000323742047991639,0.000487571762891368,1.2962568186952e-08,2.11319614376051e-07,1.00637105845875e-06,2.84511061290481e-09,5.36059614841291e-07,4.52928212988362e-10,9.00206996893189e-05,0.000130067120536673,4.45051315862314e-07,1.01074170770761e-06,9.10926039035027e-05,0.000363156860770381,0.000261573448225027,4.17364411595833e-05,0.000146691949141261,1.66791911443392e-05,0.0038760609621109,0.0050983103270057,0.000449796215428713,0.000785474848335246,0
0.0707012831976819,0.184162905474124,0.0417108865717528,0.0133082319324761,0.00550345533935837,0.0149619367904918,0.259378357607203,0.0881272165330296,0.0892265552134457,0.127031886777581,0.00502357945462595,0.0340826953450431,0.00174824136220475,0.000177884447357232,3.04124686402012e-05,0.000224781917132942,0.0676149509347336,0.00780006533019088,0.00800029521826151,0.0162158804732328,0.0582514124598227,0.134614029070707,0.0324325244206261,0.0102675885472572,0.00410852350105385,0.0111425758026683,0.197972469921938,0.0677001689338473,0.0688345614956789,0.0939573056057093,0.00999689739198698,0.0678273238159441,0.00347917236922656,0.000354103528060644,6.05352060812092e-05,0.000447495564288614,0.134549233463293,0.0155273887061423,0.0159211603571734,0.0322715004036009,0.0697103595205443,0.120436423564708,0.0292980418693773,0.00923471285166115,0.00385211164296218,0.00993418346321888,0.157540473269969,0.0514714911670024,0.0679809531263627,0.0737776722023152,3
0.021594976536814,0.0503425565499455,0.0193272468871683,0.0044913522537918,0.0019878445981849,0.0113774912318607,0.173111475436977,0.0414952335776192,0.0319849491989503,0.0799456641893983,0.000468387527624391,0.00253790904216696,0.000375323693038098,2.01800810821234e-05,3.94461149916921e-06,0.000129917302554267,0.0301133061589384,0.00172372930127949,0.00102790346016317,0.00641767497036406,0.0148420559125562,0.0405790912007235,0.015431058158103,0.00324310153256281,0.00139382684932206,0.00652877417973528,0.130130700165887,0.0300309566461287,0.0234446798075913,0.0646570255297002,0.000932321224572313,0.00505951428479707,0.000746983708112107,4.02500564120373e-05,7.87527738641036e-06,0.000258713916897624,0.0599289292057975,0.00343683669376655,0.00204578989817041,0.0127762269836094,0.0195502858644314,0.0350561883745225,0.019122115580335,0.0048467426640609,0.00193334894492872,0.00696121029353785,0.104654699342274,0.035119407609358,0.0180117373024432,0.0411804319166163,3
0.00181446158230342,0.0117357286499589,0.00201020792629034,0.000240853798587573,0.000522936386310615,0.000278909525385937,0.0191929375686041,0.0118263372342487,0.00348692395044496,0.0114792767451053,3.30303110474243e-06,0.000137383460145314,4.01121871181488e-06,5.7303210921187e-08,2.74751541741838e-07,7.77778908316028e-08,0.000363729925844378,0.00014056008031569,1.19828570005657e-05,0.000131824328088674,0.001203698372276,0.00819559557496236,0.00147527239737261,0.000174758553413772,0.000275646915323702,0.000155728006662475,0.0147220996408647,0.00957008318368039,0.00266291486054988,0.00748183453016546,6.57876893134449e-06,0.000274418039449668,8.03199126690258e-06,1.15025591042681e-07,5.46612499415749e-07,1.54886786102898e-07,0.000730279410040887,0.000279718630448697,2.40815257485552e-05,0.000262936079267411,0.0019397486057726,0.0131964994460751,0.00217225827312459,0.000266809162398576,0.000166157895823275,0.000181951795056886,0.0210627644712264,0.00922691070951485,0.00407556969002543,0.0115515754184635,0
0.000253766787036903,0.000729489247800846,0.000646765770816689,1.27473188109773e-05,0.000600620002981636,3.72218588978188e-05,0.00609963149794905,0.00777434886180728,0.000219555546020846,0.000857888571090803,6.45279800973351e-08,5.29039548136715e-07,4.20222664585962e-07,1.61820841331883e-10,3.62439833911665e-07,1.3648204340193e-09,3.7208793410911e-05,6.07033433483905e-05,4.71477032106582e-08,7.30262985649271e-07,0.000117177937323494,0.000508381568122379,0.000340472868040596,9.24159466409635e-06,0.000327276109771644,2.42037908836063e-05,0.00348269057207026,0.006393517307087,0.000157325043940021,0.000575061162675784,1.28342535245186e-07,1.05851980965282e-06,8.35340252834447e-07,3.23498364286282e-10,7.21064504057197e-07,2.74339135296137e-09,7.42236895864354e-05,0.000120832563738789,9.51162491853632e-08,1.46257399055475e-06,0.000132628356240575,0.000712621479150955,0.000216343631745682,1.41067782827055e-05,0.000167490723568154,2.8884106027608e-05,0.00370224605026184,0.00640698560334311,0.00024343534507342,0.000777413858516573,0
0.0412950128187379,0.261565153733789,0.0387511727644878,0.0186738663320946,0.00743731640901205,0.0148318916333761,0.349838765359278,0.101400005831017,0.120528565127519,0.156355152242134,0.00171286801411407,0.0687513642210214,0.0015091959123373,0.000350377277167035,5.53472205575686e-05,0.000220263594999353,0.122514612928338,0.0103035810251818,0.0146001228387405,0.024526725757864,0.0276312607137726,0.159966711187363,0.0224170878587554,0.0111019619217578,0.0039077523791016,0.00840906691751505,0.241206564275562,0.0631940891960353,0.0788231396026274,0.101140457475254,0.00340957711245754,0.13682117862935,0.00300323710387615,0.00069733734307001,0.000110383815027906,0.000439095070452451,0.244284679424057,0.020534024282343,0.02905333141108,0.0488508119469944,0.0318593093799621,0.207657741815124,0.0198039876492089,0.0110609146017316,0.00415533220653704,0.010068669555419,0.192995162776894,0.0681072859854989,0.0848201117298527,0.113138811217215,3
0.0275914211865676,0.157428112526758,0.0297176465132322,0.0124395697030389,0.00523895568299787,0.0170489852887432,0.323279740272346,0.0649260222218669,0.0960490574062285,0.163430622065107,0.000764620391458787,0.0248681410235831,0.000887491408880252,0.000155354533246463,2.73028335465885e-05,0.000291501360741545,0.104902459327209,0.00422085701969143,0.00927119872779053,0.0268405642745628,0.0192894005495333,0.113734268867042,0.0237251440923763,0.00976719493958563,0.00366980335149201,0.0113082680648948,0.267210944994873,0.0452090495914714,0.0695932258473795,0.12115205779187,0.00152205928973907,0.0495270683022525,0.00176619082124531,0.000309318865655335,5.46128021807875e-05,0.000580686643873795,0.208886163368345,0.00841491651489204,0.0184494707226434,0.0534156844372712,0.0243193503664071,0.12622339462845,0.0337051952975878,0.0136596987709419,0.00501694184417632,0.0148431114543814,0.327443855747648,0.0515000725321407,0.101339801496296,0.140410721397894,3
0.00363689369238507,0.0274325942494562,0.00310989856359962,0.000950394653310008,0.000586741418118361,0.00104095948277067,0.0690669035760426,0.0145057653696175,0.0110365286640878,0.036573713531413,1.32228166114164e-05,0.000746724712399995,9.67052210402518e-06,8.96740828212636e-07,3.44135437563111e-07,1.07780915307142e-06,0.00469638119422491,0.00020976788311896,0.000122084382054805,0.00132409843878417,0.00258440918820174,0.0196367209794749,0.00227616104486606,0.000714806116873291,0.000372883686742397,0.000733448035498337,0.0498353269741103,0.0106606770226836,0.00782600870567919,0.0266834903716244,2.63831473284114e-05,0.00149552554530373,1.9293612813074e-05,1.79537684569164e-06,6.86665632031796e-07,2.15553220299565e-06,0.00944309837577101,0.000419113713736241,0.000243272996383548,0.00265511389955856,0.00414977407451047,0.031466326139564,0.00341187236475416,0.00105156747975441,0.000278052323711396,0.00114992909850567,0.078955344321385,0.0125011823029938,0.0125322488193178,0.04160018137447,3
0.00038405491454953,0.00163113034521532,0.000701931547207851,5.4601302681174e-05,0.000584402683661194,0.00024140355372781,0.00476698081208157,0.00657985022514494,0.000648174834331914,0.0023142287703212,1.47671074039114e-07,2.61657297246394e-06,4.9497191445692e-07,2.97247264749741e-09,3.43077638296076e-07,5.83854122573282e-08,2.24354970200133e-05,4.34076289902454e-05,4.17865228936674e-07,5.32776916054204e-06,0.000185646907952783,0.00113742196768163,0.00039462986814491,3.9572880408928e-05,0.000318485097076351,0.000101084423498107,0.00360777803536374,0.00513593983002484,0.000444429352222549,0.00159381129216721,2.93417296570332e-07,5.26352831027279e-06,9.82598727764894e-07,5.93876746873671e-09,6.79037597573226e-07,1.16091083512862e-07,4.50469008559421e-05,8.64840273526001e-05,8.35888238446905e-07,1.06567560110302e-05,0.000210451761501818,0.00178196606120553,0.000252158621041749,6.04332559337519e-05,0.000184134084124932,9.15323684474319e-05,0.00442446464211925,0.0037696792339562,0.00071735993538938,0.00229908340073188,0
0.0242137287591816,0.122119308560484,0.0161112763296649,0.00752380227904535,0.000921638207147357,0.00354243151455445,0.203112375491828,0.0558343378100986,0.0778112376342365,0.131356788527769,0.000589102771151575,0.0149446865309158,0.000260254196575078,5.68743138586558e-05,8.42228326870206e-07,1.25556628522408e-05,0.0414610731773607,0.00313307991562287,0.00605290981244377,0.0172204477298428,0.0129782733934282,0.057361883947968,0.00864254629807303,0.00382581617093048,0.000455133658401249,0.00179411321931258,0.123390358561527,0.0352633013025988,0.0410013500278708,0.0655025570295581,0.00117242328656164,0.0297830815237945,0.000518517139686763,0.000113196060816409,1.68003813385086e-06,2.50358925052164e-05,0.0825083600991033,0.00623487905029427,0.0120771695433648,0.0343882885510595,0.0161687402426472,0.0663621359012217,0.00775193509746635,0.00441648340813111,0.000305127010831246,0.00163411673361427,0.119379931511036,0.0364753865339051,0.0524139883125027,0.0804392623397345,3
0.0225077445628055,0.111744062949436,0.0156393820980456,0.00869950663200913,0.00564077481257546,0.0141402871190136,0.275354167510569,0.0946527715370069,0.094695829697354,0.140208786482505,0.000509108566224026,0.0125129304259423,0.000245372983071643,7.59960885058441e-05,3.19777087967769e-05,0.000200904263456748,0.0761947877115059,0.00900242205748334,0.00897648798734735,0.019616512881074,0.0169562617956984,0.0886505145604722,0.0104337023418027,0.00659002958837491,0.00415836896874661,0.00936421628600187,0.206228219799704,0.0725389114428256,0.0683321115076634,0.100980356908023,0.00101314865295629,0.0249352327447394,0.000488732397806191,0.000151296173109879,6.36358630034752e-05,0.000399846092340709,0.15163304658386,0.0179165265591446,0.017898842037186,0.0391754688979994,0.0163560478372906,0.104070857390409,0.0139009034159754,0.0072523450498301,0.00419303360153166,0.00970318860404058,0.172924183364349,0.078912526978416,0.0812201509196735,0.109863057042564,3
0.00237680108102065,0.0170751286480647,0.0010637625243252,0.000725087285529019,0.00065718694426243,0.000195491599562507,0.0366471190179593,0.0132396911943291,0.00944116112239327,0.0384670228993407,5.64238896201176e-06,0.000292740168641293,1.12480242067352e-06,5.15134353427972e-07,4.26346897106893e-07,3.81426080162908e-08,0.00133974306971021,0.000174938743420945,8.9512202612668e-05,0.00148613849758417,0.00177292242345215,0.012414285875769,0.000729169825545579,0.000503845638700466,0.000435301308974931,0.000139017433265705,0.0272496429958844,0.0095175187953618,0.00707616838683829,0.0270091206201975,1.12633403311752e-05,0.000582820381467818,2.24892528408895e-06,1.03807126093202e-06,8.51507178860133e-07,7.616611829541e-08,0.00267603890208049,0.000349325017599781,0.000178196726277179,0.00295829113004068,0.00275301379321282,0.0192574195973788,0.00106068669019726,0.000763544723442832,0.000501632928012868,0.000199654206586108,0.043667729328345,0.00846624290682734,0.011243330617062,0.0399609538506624,3
0.000288307488063619,0.000999300590178052,0.000547184165042027,0.000233805128587613,0.000564437461398742,0.000326698338491801,0.00280612264439142,0.00876060095194238,0.000718636226138235,0.00162894958554701,8.34546499313723e-08,1.00356581491593e-06,3.00494771043177e-07,5.48517965371658e-08,3.20190374994751e-07,1.07268074357259e-07,7.81978443353787e-06,7.71319740051836e-05,5.15683044249888e-07,2.65567125421125e-06,0.000138200654555129,0.000701580754380743,0.000262144604973327,8.01954717205721e-05,0.000307890222637053,0.000119941681568348,0.00190034549029831,0.00696666549085654,0.000506230417812663,0.001105159838873,1.65834439688118e-07,1.99708351904255e-06,5.97115872194742e-07,1.08970739371641e-07,6.32644925085656e-07,2.13463509405266e-07,1.56550098014565e-05,0.000153467528054323,1.02939786409624e-06,5.29437038324628e-06,0.000174307229886416,0.0011046042528159,0.000171061623410417,3.93626763394823e-05,0.000176268689651539,7.26485502262863e-05,0.00272716651057482,0.00516571134789837,0.000760301889692115,0.00125453340047414,0
0.00894084445480986,0.0435487959695341,0.00650044797352139,0.00424594359581723,0.000647745114362607,0.00187325578169203,0.103633468197537,0.0314295120676946,0.0421286752546092,0.036391247163032,8.031606896917e-05,0.00189645998201428,4.23166588231137e-05,1.81183855812926e-05,4.2167273382991e-07,3.52257015101677e-06,0.0107937360130866,0.000990469459072517,0.00178231984442397,0.00132427354571951,0.00427310630505999,0.0158132132280739,0.00255340231257016,0.00161283761136808,0.000348917370778535,0.000691505850120893,0.0515776157974509,0.0197546650909277,0.0156045067149185,0.0123922643726441,0.000159853152305756,0.00378347389018248,8.43608288169339e-05,3.60525635414043e-05,8.39135668205015e-07,7.01335268132621e-06,0.0214795395230402,0.00197322006116908,0.00354815974560144,0.00264188507654205,0.00432919839880464,0.0166398249041406,0.00267809759402052,0.00212851534579315,0.000181857939436367,0.000710384328754247,0.0609798484141575,0.0211694987906443,0.0196955233934779,0.0119380033088414,3
0.0373444846951205,0.250805436403739,0.0302716947736712,0.00939197467783304,0.00864231108070899,0.0235181144733194,0.332006557289773,0.0891012518386244,0.133948007789278,0.166696631602353,0.00139957975352778,0.063217885611871,0.000920943950831201,8.86513436079142e-05,7.50525412208518e-05,0.00055586940652814,0.110775733788132,0.00797701580441629,0.0180299440243694,0.0279253362247875,0.0307610105362359,0.203816286071981,0.0243242644131326,0.00720738464406896,0.00640062831156787,0.0178342773537638,0.26173101584559,0.0731310153292034,0.105208190356806,0.136145588758736,0.0027871528112778,0.125802468724909,0.00183269296686487,0.000176417274746872,0.000149366535758238,0.00110619089117479,0.220448174865736,0.0158761436165566,0.0358815695868598,0.0555679216997907,0.0320828090003999,0.231574937031991,0.027661407643024,0.008770792852483,0.005753361198867,0.017868777051879,0.232433029474521,0.0757971045243875,0.133445832483166,0.122099259658552,3
0.00794120741378578,0.0647138960847377,0.021678117026014,0.00077515851595126,0.00088042944278859,0.001719474037718,0.0324556509832435,0.02906437984975,0.0301810455088715,0.0522222934428156,6.16163020718883e-05,0.00418521738751932,0.000471757873558392,6.01477019249271e-07,7.67994494838554e-07,2.96590676693585e-06,0.00104802566685698,0.000848678469843793,0.000915326393591726,0.00273896752653205,0.00441913199184928,0.038688952665697,0.0138686656476016,0.000580018135287397,0.000596832096437091,0.00139781047901383,0.0275251609295944,0.0228720004052687,0.0178926322712827,0.03454498394026,0.000124370899566555,0.00835170181518411,0.000939306144840248,1.19932499482943e-06,1.53930049072989e-06,5.90766730009174e-06,0.00209610714973478,0.00168917176426676,0.00182163684783226,0.00545211499899447,0.00580343110448291,0.0344302069953891,0.0121801369425498,0.000839676462188045,0.000837355737138868,0.00219083052137019,0.0339285926000496,0.0237680898432689,0.0219716634071,0.0338757566804955,3
0.000419047308870853,0.00336294732912043,0.00112264582586875,5.99480639298646e-05,0.000672240976446304,0.000303644348268056,0.0225534455980549,0.0135602421782433,0.00194825299375982,0.00532322602019588,1.73681591630132e-07,1.11236320067401e-05,1.24513343066405e-06,3.60964661300517e-09,4.54164310679054e-07,9.18929970198281e-08,0.000509858798102084,0.000184692451259703,3.81130889401007e-06,2.84381229641056e-05,0.000289807781436971,0.00234850889985154,0.000850733604728653,4.24199102597241e-05,0.000361622433433745,0.000187098831423539,0.0168862861987954,0.0106367021754366,0.00134778326706245,0.00309184400030653,3.48173551885153e-07,2.23772353007385e-05,2.49832439091735e-06,7.18512510548068e-09,8.90227695410055e-07,1.83382737422159e-07,0.00101594863914337,0.000367626949727866,7.58692282090785e-06,5.66266236205487e-05,0.000398531443337378,0.00374446024451101,0.00103365367428251,6.57364601831098e-05,0.000199009366831623,0.000228985967330812,0.0124477289219359,0.00784271131766303,0.00213957430342675,0.00376441415078782,0
0.00615113915530714,0.000175475951837743,0.000937079320284887,0.000326507715438059,0.000569106885681405,0.000608272841348587,0.0313132361153643,0.0173390663492401,0.00928571545513095,0.00870752555236079,3.80263392262946e-05,3.01178132952819e-08,8.82260324555628e-07,1.07143003024504e-07,3.25467662782863e-07,3.71783739324731e-07,0.000982980901178513,0.000301945257194805,8.65891403625611e-05,7.5838695507434e-05,0.00153479196002249,0.00012345167315933,0.000440481471302825,0.00010167165380002,0.000291965691572036,0.000193481760068698,0.019133495964719,0.0122788351405754,0.0025035770601969,0.00235843748947292,7.56688194089962e-05,6.07588106406487e-08,1.75443368965686e-06,2.13214575931602e-07,6.46659942854033e-07,7.38969389390504e-07,0.0019583989591353,0.000601070501949753,0.000172375976088032,0.000151276597715078,0.00233010569065411,0.00019462460763115,0.000297478863830666,6.64900716461542e-05,0.000178699825833216,0.000191311317383282,0.0146631199705101,0.0088711156104755,0.00386033120113149,0.00292789438394143,0
0.0418374912447739,0.193415535623253,0.0218373006964678,0.0102451430588735,0.00558023589417904,0.015878941462007,0.200847669427357,0.0530140212830564,0.0800746489188185,0.15079088635463,0.00175841101619099,0.0375472780058699,0.000479199336370375,0.000105447546330186,3.12932107373315e-05,0.000253406761137982,0.0404664298396702,0.00282139812295678,0.00644178055237644,0.0228515049402214,0.0325088158616108,0.153284309976366,0.0169839451855853,0.00802001165606192,0.00407765396832007,0.0122403110566927,0.157254790184634,0.0429161046023198,0.0650044310072353,0.121548332674013,0.00349998926837447,0.0747684399401228,0.000953658236423713,0.000209878337587542,6.22684268100237e-05,0.000504275665864519,0.0806034911096232,0.00561777547890822,0.0128214125262538,0.0454750697443969,0.0265724461333927,0.126504617491542,0.0142677067181172,0.0057120556513791,0.0029965603717973,0.0103994192290097,0.111915393670971,0.0271285297363312,0.043732087463617,0.0725060724253227,3
0.011279430798886,0.0780858803427441,0.00202901547290595,0.00180092086611735,0.000919307893714676,0.00267064246147099,0.123799116992951,0.0449922238717628,0.035224204449861,0.056709825977361,0.000126941987376262,0.00607381955030165,4.04428441697047e-06,3.22165690015716e-06,8.47223676022366e-07,7.15792648045614e-06,0.015356134318261,0.00202946477503021,0.00124257391282693,0.00323214697595862,0.00790093551236052,0.0613514872959108,0.00136857961991035,0.00133173565123104,0.000676460993050521,0.00220241927347188,0.0954046950167021,0.0361453503478119,0.0276703105619345,0.0477213380469729,0.000253532674775399,0.0121406933020557,8.13956631264075e-06,6.44881334357463e-06,1.68808108302364e-06,1.42540843471439e-05,0.0306054175411058,0.00404350286402169,0.00247704261459812,0.0064319872606303,0.00954385843073599,0.0824522913209637,0.00172918472332111,0.00204289512185053,0.000846721309486313,0.00294369209552365,0.116047469302915,0.0373572318354713,0.0372715902007085,0.0506296313913775,3
0.00857193150342701,0.00705868511049895,0.000601410247186688,0.000258384198708185,0.000602725654252161,0.000320621096351006,0.0216478958424588,0.0148233524265743,0.00340189869940658,0.0102626022734957,7.38438304398462e-05,5.00004025790775e-05,3.63405421173847e-07,6.69722448775655e-08,3.65094859284295e-07,1.00261534248057e-07,0.00047093913452233,0.000220687235415994,1.15552512409685e-05,0.000103838527278896,0.0057367587375519,0.00505934888956444,0.000297606466073301,0.000121012360374754,0.000332326619044907,0.000227855489400292,0.0161706078188158,0.0116712464866655,0.00246543207608868,0.00749388390460376,0.00014694908887539,9.95723736387419e-05,7.23060458871636e-07,1.33100667636839e-07,7.19627924951787e-07,2.02558025920762e-07,0.000937214075457484,0.000439313728193801,2.30698027319526e-05,0.000208635545569069,0.00419177252295353,0.00783013641623496,0.000206055497684831,0.000138064357839539,0.000198789300460471,0.000355967899309682,0.024218747138915,0.0127996029828365,0.00377347139875974,0.0113741147087046,0
0.00155733837059184,0.000513898457604464,0.000604769498487101,0.000230738900189672,0.000550619823386006,1.63063143083814e-05,0.00479545431668771,0.00934654365320611,0.000185838129931354,0.000568258439026417,2.43373171969827e-06,2.65399736787308e-07,3.67583941240152e-07,5.35063165810972e-08,3.04701724798342e-07,2.59329432461768e-10,2.30539608975725e-05,8.7445304879339e-05,3.46598786922739e-08,3.15195149377733e-07,0.001120530595887,0.000339662878584433,0.000308632315392905,6.09464168914713e-05,0.000284768831884239,1.16032861347926e-05,0.00168645162995897,0.00708031651710917,0.000132754147607433,0.000339970453738315,4.84411041995774e-06,5.26837062991436e-07,7.28974234256345e-07,1.06201266239374e-07,6.06360357251744e-07,5.23928382966181e-10,4.59267676662889e-05,0.000174292926063665,6.90202070035064e-08,6.35492355203043e-07,0.00174863621069926,0.000454982083808609,0.000176926043197274,3.54829018676902e-05,0.000152859977240514,1.80921737374759e-05,0.00132992588962753,0.00527564533156197,0.000205454850076199,0.000455392237583245,0
0.0464229331332075,0.288144977712043,0.036660262106808,0.00801505753371531,0.00763369931206392,0.0143699718248586,0.284635813053909,0.0879589943389082,0.119250520091868,0.261943285580893,0.00216579725528453,0.0834443409096765,0.00135060568260549,6.43726992126614e-05,5.85317304195018e-05,0.000207518961644343,0.081333669801851,0.00777554897749694,0.0142874490058373,0.0689037017054162,0.0356178960704753,0.20415616346639,0.0255145158210157,0.00580466292925376,0.00498283833247619,0.0111580513461718,0.225695798954582,0.0691285033557829,0.0911448993220764,0.195298445153338,0.00431005646344367,0.166054003818935,0.00268782016085009,0.000128272587428893,0.00011651216931592,0.00041297408091568,0.161944472269335,0.0154734558395402,0.0284365638416331,0.137172933846778,0.0425078326847129,0.20207309616052,0.0309173240301661,0.00630382180096971,0.00620558607357262,0.00873046760815218,0.18471373080514,0.0537743521161428,0.0894574596953877,0.224161348864724,3
0.0170362386043831,0.157816545819193,0.0228619577947247,0.00388348946453128,0.0020262117976996,0.0067433007860313,0.163418388378915,0.0620457281922674,0.056919616608784,0.123976691774994,0.000291634106797139,0.0250289353241963,0.000524946234161472,1.50108453755211e-05,4.09793096697497e-06,4.56774475814382e-05,0.0267743826867097,0.00386877626172362,0.00325283426876165,0.0153983377540781,0.0125701146594642,0.121371632321887,0.0142923231043913,0.00306550488490861,0.00157879332629738,0.00444908038892418,0.103642561325895,0.0468597871600243,0.0354730594790883,0.0854304171563332,0.000580407250953152,0.0498095283684058,0.00104498545193348,3.00158504449672e-05,8.18096686301191e-06,9.09211557761988e-05,0.053345534353821,0.00769908451185389,0.00647639100176559,0.0306899787113964,0.0129224318159925,0.119902590895993,0.0144026268574633,0.00451330858235514,0.00244940525765966,0.00647886740093608,0.133889961584328,0.0505238185731679,0.0343059950213846,0.0899433181927307,3
0.000566472341629483,0.0131156491827381,0.00165248172463355,0.000357164936109111,0.000582125412174014,0.000265096859407743,0.00756479761731748,0.0104655286564313,0.00291259578620392,0.0101900183900674,3.14358017468823e-07,0.000172165851799353,2.6938038307046e-06,1.25320382857917e-07,3.40373009937272e-07,6.97396986266088e-08,5.61479744640699e-05,0.000109907190573369,8.41530076846332e-06,0.000104184139212945,0.000417001604330732,0.00950957608054359,0.00113599844327176,0.000249002599771797,0.000321883145013611,0.000192821316596392,0.00548211380859525,0.00796476004270579,0.00201245468994328,0.0073704347734725,6.33668600920953e-07,0.000343315882510077,5.41096876444985e-06,2.52258525015317e-07,6.77540068928329e-07,1.3966461402413e-07,0.000113090087895269,0.000218883963207625,1.68564384351547e-05,0.000207493013188503,0.000615620798188617,0.0145803489915388,0.00178516028647827,0.000396440443769238,0.000179546577437423,0.000293926641198765,0.00843791678705045,0.00794947073904317,0.00324191646221583,0.0113325776856448,0
0.000231650847927481,0.000724326422168472,0.000569613032443285,0.000327848432567652,0.000505333857786074,0.000227798655793236,0.000736984284276851,0.0093838937095734,0.000147035951768444,0.000594687517114359,5.39317712470784e-08,5.26697252015606e-07,3.2579085891428e-07,1.08006283311394e-07,2.5658760078306e-07,5.21437330203703e-08,5.43616182916465e-07,8.84141792038233e-05,2.13166791920459e-08,3.55129022360095e-07,7.02515163685538e-05,0.000516579663524523,0.000313035776685525,0.000118242901899195,0.000249081388615491,4.99285104693942e-05,0.000519121380472549,0.00770562151226769,0.000101502002068264,0.00042341725598551,1.07047084266669e-07,1.04867901900893e-06,6.44222484778037e-07,2.13834867997443e-07,5.08183420022979e-07,1.03479509417006e-07,1.08368050932733e-06,0.000176028223228265,4.28291189537239e-08,7.06983848370466e-07,4.00480698477517e-05,0.000800777733834204,0.000162289629064806,7.0318933336319e-05,0.000136875642638314,3.87628558910994e-05,0.000508889084554389,0.00550700890809529,0.000162658833149,0.000657544947647858,0
0.0242584388342032,0.128973800394426,0.0175348551285262,0.00635598244029956,0.00359267875522025,0.00935561919838351,0.161754184290936,0.0416270732329225,0.0844974663947353,0.123155070734492,0.000590955471877488,0.0167164843036603,0.000308706094801277,4.05971254596344e-05,1.29233558112172e-05,8.77599300847669e-05,0.0262951145398768,0.00172908913288954,0.00716910777172108,0.0152403246769707,0.0154573354933168,0.0763806707229555,0.00966845489600202,0.00279145927491002,0.0017831797990477,0.00588896239166409,0.107662089133188,0.0258016033992203,0.0544257416967882,0.0745048145562665,0.00117646435480035,0.0332627286908174,0.000614503097839066,8.07722687703935e-05,2.57658824656728e-05,0.000174845193731164,0.0523251923387973,0.00345322024714626,0.014272867799436,0.030329517264691,0.0151496545296643,0.0773301769500472,0.00994154802722264,0.0027768458334923,0.0019242876665093,0.00607651831737533,0.0947778695486157,0.0185886011523324,0.0723299944745436,0.0729201123844097,3
0.0212797310260912,0.128855810329329,0.0169882142924306,0.00531231412063612,0.00243179029680083,0.00883137035730244,0.170967572828068,0.0727646963785342,0.0633976989690643,0.116337275666556,0.00045411644027267,0.0166794592273163,0.000289743985612896,2.8361745624223e-05,5.90498644718486e-06,7.82358161764412e-05,0.0293759770644486,0.00531402574464174,0.00403651370384814,0.0135953469054134,0.0132366955614777,0.0912270729142246,0.0125276815182229,0.00354660849943098,0.0016136473443482,0.00548675336838278,0.13050881251626,0.0564349295416368,0.0492694504287627,0.0886468948587076,0.000904662181588635,0.0331968240798527,0.000576873408495056,5.64372294948139e-05,1.17803265609631e-05,0.000155836215415923,0.0584584680744943,0.0105821304363935,0.00803559099129034,0.0270614014083578,0.0102420380622552,0.0822378614520904,0.0108266929923917,0.00259985005809499,0.00165846667182366,0.0046817594063939,0.094427206337686,0.0524166203021989,0.0333411587728811,0.0559656854339408,3
0.00206359387349354,0.00930158141564982,0.000673530167327827,0.000499607010621955,0.000443589020457906,0.000785591108927726,0.0309660446630457,0.0114081265209432,0.00814540887032026,0.0121083349225373,4.19974011986306e-06,8.45908469562115e-05,4.55922496926822e-07,2.49572606465152e-07,1.9736342747472e-07,6.15091467524807e-07,0.000960792430789539,0.000130532294225371,6.60765502413524e-05,0.000146531091876612,0.0015506263608616,0.00655329035783367,0.000443742776475182,0.000338345958231925,0.000242881281142286,0.000544931396668297,0.021558903499925,0.00929628549071683,0.00602173642211887,0.00957560012690728,8.4369341069595e-06,0.000170687227521262,9.03107975896688e-07,4.96976378591081e-07,3.90515984413163e-07,1.22914743340195e-06,0.0019148155588534,0.000259997414153933,0.000132091529803826,0.000292409973309813,0.00232033247335003,0.0104082128474823,0.000511082842655137,0.000427274739721666,0.000180075250275108,0.000818015043369893,0.0340292734222903,0.0105576118374527,0.00914833821832302,0.013938396800547,3
0.000136087135851482,0.000579096172020727,0.00065335026687197,0.000399736818882917,0.000515627654581793,6.98946939885649e-05,0.00176572697429257,0.00790277764096463,0.000521030046885365,0.00126748123594612,1.81763187677449e-08,3.29238536667741e-07,4.28868418732031e-07,1.60585285022261e-07,2.67192071978229e-07,4.90889332824709e-09,3.12917641870339e-06,6.26740640680058e-05,2.68154557966562e-07,1.61458155482337e-06,9.8833880955255e-05,0.00041178812036333,0.000387692368186664,0.000155383972663892,0.000256094707940301,5.17709757978421e-05,0.0012119830490688,0.00631616672930491,0.000351729395284702,0.000893105695360699,3.66050458089146e-08,6.62698074016721e-07,8.52497817873149e-07,3.1926691311802e-07,5.29225133776751e-07,9.76961448519949e-09,6.23046032537059e-06,0.000124814564445256,5.37933149501777e-07,3.21291132729854e-06,0.0001540222801359,0.00060099872945095,0.000244466365883515,9.94863143624008e-05,0.000154898379329519,6.14443330458787e-05,0.00184692559161018,0.00549875222449447,0.000504188537792727,0.00140208691335113,0
0.0153288985603423,0.119974100939776,0.0207332933576118,0.0119900190067961,0.00199364815148302,0.00378679960105983,0.109134003374013,0.0391217221953519,0.0818327239222818,0.0719284237046071,0.000236120029855191,0.0144616112184921,0.000428512458198279,0.00014408038836609,3.98065186281998e-06,1.44100890693506e-05,0.0118906589271444,0.00153577601635123,0.00672788364534691,0.00514818388382476,0.00781267296812331,0.0599355735407032,0.0104481673282045,0.00537985819441104,0.000716155327425284,0.00187311873076362,0.0635460852106595,0.0247790652887586,0.0466409163725235,0.0375066486143322,0.000469894357386379,0.0287830349251077,0.000856239345053989,0.000287075748990337,7.93351427411422e-06,2.86759386462637e-05,0.0237373124098974,0.00305858948379141,0.0133908333716953,0.0102946164209295,0.00808295610301824,0.068565216386781,0.0111601083298484,0.00544978186165692,0.000721118309192364,0.00151146720329679,0.0498716738250974,0.0215845100457291,0.0429311974811055,0.0260605651614689,3
