0.00547199096232174,0.000466579365704414,0.000915188944901082,0.000472342483649191,0.000873405880136791,0.000414252892123705,0.0155589263968396,0.0202067918363594,0.000519757483098131,0.0161996567897007,3.009217256737e-05,2.18788620540461e-07,8.41700023888e-07,2.24228311931643e-07,7.66649990259553e-07,1.72462943761156e-07,0.00024329425633531,0.000410335230819538,2.71498876134986e-07,0.00026364776475171,0.00421217444451107,0.00029851821867441,0.000648578902226888,0.000319267780824995,0.000583559557975311,0.000293836460463587,0.0126149236289889,0.0155465424519314,0.00033557295303794,0.0115940553909663,5.98828264278979e-05,4.3531238372841e-07,1.67500558426241e-06,4.45627635244657e-07,1.52385496754212e-06,3.43145944578918e-07,0.000484151614934649,0.000816546800736993,5.39631639489522e-07,0.000524700976023506,0.00272920528616078,0.000224201282203196,0.000350339194858223,0.000271127190506537,0.000296069420293308,0.000258831107183349,0.00686809068136394,0.0111376488342644,0.000235830200720016,0.00914594036549311,0
0.00708294667106572,0.00212747087420863,0.00495376100696193,0.00208177867211231,0.00416789601468116,0.00207252588328088,0.0104128052995943,0.0190116313452255,4.57969427592128e-05,0.0140855936777544,5.04193546225118e-05,4.53948976564345e-06,2.46260236122689e-05,4.35451802401582e-06,1.74584139681819e-05,4.30070420222873e-06,0.000108730724556473,0.000363237143870121,2.10244918310954e-09,0.00019939345718906,0.00538963613023237,0.000428954334553267,0.00120731043256912,0.000360442842186547,0.00112584866831195,0.000427358148856678,0.00785517296486308,0.0148685393924462,3.25557559542027e-05,0.0114047648832671,0.000100334661416135,9.03773605349884e-06,4.90309056934993e-05,8.66356137981765e-06,3.47002648280082e-05,8.56017533802614e-06,0.000216607894203715,0.000722790670728822,4.18915826288855e-09,0.00039679511185467,0.00434130624707198,0.000603977341781034,0.00145560349323339,0.000559095789495016,0.00139074138858177,0.00059517580369235,0.00623783910469322,0.0136687291356257,4.91882758414247e-05,0.0105426269902378,0
0.0652685621907367,0.409726642446899,0.23071162362413,0.0446830366232362,0.0244476613526189,0.0216991057802189,0.224915278375694,0.19484582586457,0.296838364220897,0.0530062572322181,0.00427956307500236,0.168666287441323,0.0534620687141113,0.00200660664032264,0.000600629386303944,0.000473170951102502,0.0508308421308961,0.0381362632930547,0.0885470972211559,0.00282313220006523,0.0509660510582447,0.32058576968499,0.176535429132366,0.0364780423246367,0.0183127075923019,0.0170262716666145,0.169271513810555,0.158950925357867,0.212078116281092,0.0395941632623307,0.00851796613501634,0.335698138499272,0.106422295475216,0.00399313835795198,0.00119530091697721,0.000941647489052989,0.101163352396277,0.0759097512835421,0.176216850011525,0.00561866465695955,0.042349523766885,0.366984425298018,0.215326206460734,0.0405246043814604,0.016881581715728,0.0151338258356068,0.193756040818942,0.180540302941207,0.213198796491714,0.0450874813540501,1
0.0720659700049752,0.111134350142656,0.112734768091916,0.0485729053148928,0.00643659751218335,0.007280997761687,0.1193675950775,0.0753409076863052,0.100610117345902,0.0153499050024025,0.00521946849327465,0.0123722177541833,0.0127486518299749,0.00237052783988124,4.15822478020754e-05,5.3273379621566e-05,0.0142984516201834,0.00569303494077428,0.0101683029573206,0.00023680357200701,0.0567500358915803,0.0928395972183538,0.0880011533615689,0.0326324729474931,0.00438725524054058,0.00531664587926383,0.0895762867155828,0.060505025962858,0.0856417697211246,0.013028696560421,0.0103868375431621,0.02466117433073,0.0253938933693971,0.00471799976374194,8.28038438409473e-05,0.000106019045163873,0.0284755813478848,0.0113408134588222,0.0202398543432752,0.00047123832771287,0.0653314922815026,0.101652906351459,0.0759631252176126,0.0248178739499928,0.00332366646594076,0.00483951629255976,0.119456432919499,0.0630885951490553,0.0807085531816297,0.0142317416354838,1
0.0150943607470549,0.0179121457497653,0.0205226530810102,0.00903819447105579,0.000894574964906537,0.000608901608471175,0.0102463477310602,0.0214825008425516,0.0209687731865139,0.00889935961416514,0.000226698412765895,0.000321461005085415,0.000422320909826349,8.16250674125913e-05,8.03290192857387e-07,3.72623012079876e-07,0.000105091159959651,0.000463261573197499,0.000441371920539211,7.95744376805332e-05,0.0112652141412768,0.013001213941152,0.0149351228423695,0.00647580551893889,0.000612679714562247,0.000440777926292565,0.00791922073452175,0.0172123762471513,0.0151314141089564,0.0073019102620275,0.000453393887133525,0.000640688831133589,0.000841352541055235,0.000162902875341529,1.59819127897765e-06,7.41512471985906e-07,0.000209542843534667,0.000922358881181399,0.000878816819077681,0.000158335388676053,0.0156999045782718,0.0200067845339176,0.0229004512679042,0.0103746334359482,0.000726903279146171,0.000586094123931861,0.0112479153515447,0.0153288147644453,0.0234222433234918,0.0064062485583565,0
0.00487315470893289,0.00102774132784458,0.00133736053022801,0.000579749382597214,0.000813151973919793,8.80096438560559e-05,0.00698650858115795,0.0162184910994832,0.00121737239589572,0.0114286793800212,2.38370051178807e-05,1.06130073978575e-06,1.79619396275353e-06,3.32810581061546e-07,6.64538787941003e-07,7.7305383242668e-09,4.87483066276544e-05,0.000264321741428317,1.48944167314865e-06,0.000131044702614671,0.00347481013086405,0.000728933439499555,0.000963223094940641,0.000384946066347249,0.000495162915558899,3.65887575146457e-05,0.00547718267510057,0.0132070412942844,0.000879283594264904,0.00891538879629238,4.74638890918948e-05,2.11217752467983e-06,3.57518057087506e-06,6.66878902306131e-07,1.31551297877136e-06,1.54364354678416e-08,9.73157241138972e-05,0.000526030834836887,2.96390376485138e-06,0.000261004014777855,0.00225673438747715,0.00113729164298888,0.00121638104319251,0.000578487420315539,0.000239051913779735,5.68138858277685e-05,0.00302118269400769,0.00916444876050372,0.00128905234271117,0.0081470360997758,0
0.0372649384480176,0.302088779722193,0.175689031162501,0.0245979613339252,0.0195916499706908,0.0172032836822091,0.142198716404207,0.122384147643337,0.194506915048096,0.0445120884511817,0.00138597919437466,0.0915852473295962,0.030934611542332,0.000608055211339875,0.000385685329838624,0.000295255491319998,0.0203000684295324,0.0149884622446852,0.0377443455187498,0.0019892257215486,0.025192175676086,0.197842803647002,0.118327919088701,0.0161586032856064,0.0137287746243287,0.0111232208754902,0.096001721730119,0.0834914411262256,0.122921551284443,0.0298914721319917,0.00276757397312561,0.182384839948479,0.0616465348098661,0.00121007207273885,0.000767580492204976,0.000589732068666845,0.0404186767313668,0.0298913139049266,0.0753885574871702,0.00396050451066213,0.0244143461106006,0.231586480083105,0.118443395805778,0.0161834215211322,0.0140018775927943,0.00961388167016241,0.115796882541496,0.0820784564101207,0.141505433329575,0.0338469919204486,1
0.107617874277701,0.118122579365649,0.172469875043624,0.0493668552115576,0.0106796974207474,0.0190429606191407,0.112919650593298,0.0876240254908865,0.147596147753911,0.0238140908348312,0.0115925589236742,0.0138575112666717,0.0297932520457139,0.00244915472803322,0.000114613533028796,0.000361826938415245,0.0127811259228,0.00768534024832444,0.0215327721979892,0.000567450942958709,0.0870385293238809,0.0990672653335945,0.134307961178242,0.0384317466107858,0.00769042609944494,0.0134754701689113,0.0964255637964379,0.0694847596931389,0.114314732862469,0.0202049630237551,0.0231161935246879,0.0277406854024776,0.0593895736756917,0.00487397322949988,0.000228090356134769,0.000722651349779767,0.0254678684827502,0.015324645261294,0.0432095075921188,0.0011317128743583,0.0858647400554567,0.111291962573663,0.129587977156122,0.0280468993195206,0.00690825798194208,0.0138588000097939,0.0861217032481308,0.0887141685778064,0.112577630149849,0.0161078228818445,1
0.0339289525365217,0.0179701932012464,0.052743802748945,0.0154682439983445,0.00126389646812173,0.000881536584427626,0.0234523652788398,0.0381049048102122,0.0182624730626872,0.0120340361051782,0.00114525768483744,0.000322765348633239,0.00279559005640018,0.000240178875822233,1.58533982092446e-06,7.62941479949717e-07,0.000552368248244346,0.00145220555227261,0.000330467275608623,0.00014554121706471,0.0255644609863533,0.0136337792131559,0.0416532504882137,0.0114600585321189,0.000926916968982052,0.000647345444912959,0.0177474450438282,0.0288365315776647,0.013956257662918,0.00960827423303135,0.00229067511260283,0.000644069499277676,0.00556350214927657,0.000478229430444938,3.17348283030932e-06,1.53622799122652e-06,0.00109961259355822,0.00289692351820806,0.000662329771503135,0.000289583500851267,0.0343702513025652,0.0209136566473531,0.0634389488364342,0.0172409738363918,0.00125297726130187,0.00100582418799306,0.024298414381525,0.0333722700677641,0.0216060902719013,0.00817003472170345,0
0.0164112034201565,0.00115693998815548,0.00410153795639288,0.000929868191194531,0.000751879239896852,5.02026657976392e-05,0.00934455236828294,0.0198275744833995,0.00123640235134746,0.00822208818848324,0.000270642295119163,1.33784209523572e-06,1.68589319229163e-05,8.59228375165959e-07,5.67737450103505e-07,2.45737796382276e-09,8.72772238099226e-05,0.000394931105656198,1.51738692629019e-06,6.79404458461689e-05,0.0131518615864516,0.000835665631716322,0.00293758802394923,0.00067641725152815,0.000437538693564625,3.57083174228566e-05,0.00805798240762315,0.0161910505361358,0.00089949088871935,0.00669408744169147,0.000538585794647043,2.66959055269405e-06,3.35963290319714e-05,1.71946864717817e-06,1.12994995580279e-06,4.96539718205588e-09,0.000174152775427951,0.000785957662439344,3.03843304067425e-06,0.000135203257714264,0.0108903660251569,0.0012799587521331,0.00448857683710091,0.000984653015660487,0.000233296630804059,5.56880077186221e-05,0.00969811653195168,0.0103820718869764,0.00137251804111731,0.00609760817008126,0
0.0367004206960082,0.167430733649891,0.13309864784469,0.0245000286228824,0.0191573233155023,0.0168129200248166,0.0954718815203298,0.153122113371174,0.123251444666843,0.0355724038723787,0.00135147695717423,0.0281480159862494,0.0178027405254473,0.0006032092219432,0.000368839407349822,0.00028397857970558,0.00913921863976805,0.0235622539748754,0.0152429633443105,0.00127117368651685,0.0263533553888089,0.0978707949794977,0.0913845450158091,0.0161012814191115,0.0138618397382645,0.0123286313667333,0.0626505791327572,0.109143860346041,0.0817887022250272,0.0247118148466499,0.00269152261583362,0.0560403041110214,0.0354267344216293,0.00120044455299798,0.000733948946849384,0.000565228432303787,0.018205298960709,0.0468904921475032,0.0303576069855871,0.00253019654055493,0.0224470544651445,0.117883394368378,0.0700512361785971,0.0151467584388818,0.0133101336308288,0.0132385120868071,0.0646434853319154,0.140417424772095,0.0740988499572726,0.0218737876488812,1
0.0689234736073884,0.0936863436365775,0.167211721043423,0.081433474296347,0.0103273678444038,0.020897248735409,0.096657001286372,0.0801384828004398,0.0780636472000386,0.0319371121692549,0.00477288814542973,0.00878400286506749,0.0281001133547639,0.00666170200836387,0.00010719046079171,0.000438438451105158,0.00937777387089707,0.00645168937372029,0.00611342114084715,0.00102481520395068,0.0524249306585821,0.0775284487826194,0.135488668264886,0.0542506986622275,0.00792091658767791,0.0157983229306733,0.0735713500695105,0.0587598084901064,0.063187199175831,0.0252570287171013,0.00949943870540841,0.0175172016240593,0.0559186673081659,0.0132593618781391,0.000213308488771414,0.000872913245100894,0.0186728996013161,0.0128412989488814,0.0121767861785345,0.00203966935449102,0.0440935533472816,0.0803296438189422,0.109986152169892,0.0475249475351877,0.00599412619009542,0.0154314036701623,0.0598283875668196,0.0603473642009874,0.0500478828433622,0.0286657686199859,1
0.0415508232373129,0.0297163579311496,0.0502919768607619,0.0307255475331865,0.0021315855672529,0.00391353752558975,0.0276769679225425,0.0300629849160957,0.0200140110362283,0.011459539039877,0.00173439766249458,0.000886494448525131,0.00254116678376274,0.000945979599628707,4.56287726043197e-06,1.52957823438813e-05,0.000767648052300724,0.000906590002217021,0.000400257228621991,0.000131614139584165,0.0331444235296013,0.0219573355842843,0.0354141414335938,0.0241562526271937,0.00163300459391737,0.00286827126897494,0.0198845122661565,0.0238877054956453,0.014875789570526,0.00938679332035482,0.00345219645300723,0.00176508644842559,0.00505772365164583,0.00188530185245843,9.08324712748299e-06,3.05337868774146e-05,0.00152979965075113,0.00180583862980051,0.000798801840262845,0.000262275374662871,0.0333745163302717,0.034060330889329,0.0532791910612983,0.0358825734957399,0.00246866209070928,0.00453442456639782,0.0287303014056627,0.024002131550136,0.0228641965762992,0.00779009578371772,1
0.022290665371256,0.00192293090458926,0.00390042127643729,0.00291749257047003,0.00084979973056344,0.000351565696989106,0.0108119036700966,0.0221195142732797,0.0012917469414506,0.0076903134603492,0.000499299566712188,3.71621237354157e-06,1.5287302039829e-05,8.47449067870677e-06,7.25289565682931e-07,1.23834167388401e-07,0.00011727868497258,0.000491184494128939,1.67285598628644e-06,5.92279170808864e-05,0.0178305198605115,0.00136029773086161,0.00278923276969787,0.00201874982650005,0.000553544436131126,0.000218472567724098,0.00876526953110978,0.0178572919840921,0.000926345555379464,0.00605232014882517,0.00099365691136282,7.39529313455334e-06,3.04239471982591e-05,1.6943873215598e-05,1.43357083674976e-06,2.46598857912945e-07,0.000233585736336237,0.000977995923326607,3.33300026078016e-06,0.0001180669466921,0.0131692001788224,0.00210944154193784,0.00422089146576127,0.00323740220412307,0.00027033149062849,0.00029800923716672,0.00713363241072915,0.0166998772014659,0.00142821866583504,0.00514038256445115,0
0.0300853755106191,0.128867541357875,0.106113540239157,0.0236416234635913,0.0124320198426296,0.0108097684173753,0.0807766262385668,0.0624570462501239,0.101590294000357,0.0371397536649684,0.0009092885870236,0.016611361816513,0.0112554527321926,0.000560653811933808,0.000154888402996156,0.000117387572107258,0.00652224514618765,0.00391342494424072,0.0103503269759154,0.00138621599891485,0.021456092695199,0.0585962924489761,0.0424769503096484,0.012002877765338,0.00694438928550664,0.00529610803245954,0.0409239592629854,0.0409547354294307,0.0454753448887812,0.0210445221320845,0.0018098080061391,0.0331326650580412,0.0224586914193734,0.0011166009616339,0.000308668952733523,0.000233651354964367,0.013014072856609,0.0077946389787528,0.0206186692936691,0.0027584008104063,0.0176920456183881,0.0676808553827499,0.0402609179652255,0.012115160671905,0.00659343826006861,0.00667793684588236,0.0424060198876282,0.0305381168761816,0.0445982260757244,0.0200732749467578,1
0.0714889934801384,0.157222341328839,0.210347407569396,0.0546906812074101,0.015982840756407,0.0244418071994898,0.141594550373651,0.0988853592377679,0.197470901460025,0.0525207762962098,0.00513633800217865,0.0248421250713476,0.0443992417885211,0.00299692324251514,0.000256529370168803,0.000600246210851686,0.0201201113369182,0.00981754736135433,0.0391906413613851,0.00277081880057115,0.0534072129244428,0.131897161412945,0.171496769783421,0.0364728887885172,0.012335177310367,0.0199854986671681,0.111097633225423,0.0756337478579126,0.149887016301239,0.0434811241635788,0.0102213055903654,0.0494367662757622,0.0884203772304543,0.00597300096988605,0.000510696567231327,0.00119464468108505,0.0400670782680903,0.0195467488917812,0.077989002150882,0.00551535989226724,0.0419577445144607,0.170473050165693,0.130793182965809,0.0391602575667157,0.0101200756221332,0.0212965177255678,0.105749805466632,0.0889987079345016,0.173520851107302,0.0510557109666065,1
0.0384736328760358,0.100541458249278,0.0700410967115443,0.0560187561428348,0.00412418033007944,0.00689807059581851,0.0420049823863831,0.0347139001807163,0.0791147537326497,0.0246966623804945,0.00148737717594265,0.0101155618374523,0.00492861554898846,0.00314085088731777,1.70494373924886e-05,4.78175234037597e-05,0.00177328465593163,0.00121017744270271,0.00627350843589617,0.000612029247524034,0.0316130460476641,0.0744739198523088,0.0574651324593023,0.0443304894830122,0.00246966930715976,0.0050815587140223,0.0303229698394413,0.029331298362389,0.059829229062259,0.0178915879934932,0.00296005810639014,0.0201731978184995,0.00980972080700456,0.00626308691171244,3.39725463593943e-05,9.5156484735897e-05,0.0035286765259697,0.00240915715914265,0.0125011164102229,0.00121889144545689,0.029866274517363,0.1064264680523,0.0635910427864338,0.0613181037058545,0.00285695445254908,0.00700910385076682,0.030276277460332,0.0172303435956565,0.0794178651962017,0.0232879019574193,1
0.0192324754437443,0.00806969265157526,0.0110287974940945,0.00619540886029513,0.000664332126089933,0.000604072386549424,0.0101002024751843,0.0215892354959617,0.0064346380796131,0.0108858048633816,0.000371371880983687,6.39871746512606e-05,0.000121659631411611,3.84131542886268e-05,4.43537534158383e-07,3.5772327758299e-07,0.000101964346448362,0.000468372375564045,4.1002208793336e-05,0.000118845105510949,0.0150165665511677,0.00563334048351277,0.00768190479695838,0.00432294451389403,0.000380339632747482,0.000435132953862983,0.0079496690941802,0.017990764146308,0.00443069819884829,0.00857365280500203,0.000739400766364723,0.000128786138978319,0.000242673076301596,7.66033537684816e-05,8.82656272257224e-07,7.20544335212921e-07,0.000203445198156792,0.000932071874890113,8.22003876824485e-05,0.000236751233107678,0.0108134543597145,0.00896801582042118,0.0123053052187937,0.00691232481525159,0.000192580173376703,0.000627615202749864,0.00510431996079502,0.0130763496915485,0.00713695813986407,0.00715587736831688,0
0.0176093045116478,0.0793901576984552,0.021023595998813,0.030588375741489,0.0132330546143341,0.00479777734158058,0.0310501995187557,0.0421420944952346,0.0684254119767075,0.018671233547419,0.000311517437650294,0.00624559077457084,0.000444205173709587,0.000940324858428978,0.000175692123915067,2.31265442350318e-05,0.000967927265596949,0.00178071526015018,0.0046549816529648,0.000348575379400063,0.0139213443074731,0.0272959226844608,0.0096472533252145,0.0144002683651266,0.00677150237594766,0.00233455793533558,0.0182238606986996,0.0258877981121293,0.0282066214180544,0.0108483798717251,0.000620029063620827,0.0125169375746305,0.000883762214401352,0.00187107549950252,0.000349926737478295,4.6024361682999e-05,0.00192707772336862,0.00354741353873242,0.00931352152582172,0.000695443188745444,0.00982487250418054,0.0329774347455859,0.0119757543688336,0.0137112142286283,0.00775217527300524,0.00225336156084056,0.0168376325444705,0.0229692250074473,0.0254103580840037,0.0102397103262286,1
0.0680442991612744,0.125959970010678,0.164690471885569,0.0381053213756611,0.0167707371616332,0.0190969024870051,0.0967553858552044,0.0843796196116958,0.150402613164068,0.0298680907406,0.00465132066087389,0.0159108695896782,0.0272452979522853,0.00145769661797598,0.000281031851676436,0.000366111530627642,0.00940849999862828,0.00714484163264514,0.0226960277524179,0.00089587710165932,0.0540036874378357,0.0972956945409527,0.132635259086993,0.0297156343770288,0.013594830453187,0.0147553779993362,0.0758355875893637,0.0706070217150589,0.115764630077961,0.0231442453689429,0.0092579077405057,0.0316972138279895,0.0542286639970705,0.00290236540647404,0.000560859192992703,0.000728970247617812,0.018720800534364,0.0142288553628435,0.0452025359675502,0.00178340980005575,0.0383202388928206,0.134643561453094,0.0831505171714343,0.0228306833143161,0.015245693672295,0.0145129399898476,0.0725099839474561,0.0685101665938319,0.120477718879705,0.0246808582073145,1
0.058507540309879,0.0810525574227074,0.128756558317959,0.0735823440164359,0.00920869073777275,0.00956617862274876,0.0492697365057639,0.0512968565362353,0.0515677826924305,0.0248747070635872,0.00342648058568982,0.00659793562424813,0.01666099041754,0.00543002763934142,8.47246028920521e-05,9.16605380686547e-05,0.00243924078414099,0.00264453177533526,0.00267243174142235,0.000619244918890048,0.0507977396135249,0.0614274277875975,0.0997157267968675,0.0602514409423923,0.00539938618077633,0.00753001567823234,0.0394357894642712,0.0432653978074623,0.0442419985871664,0.0193222188175105,0.00683245674142209,0.0131343387412491,0.0331543463144233,0.0108172346852814,0.000169085070754702,0.000182704036263022,0.00485454550293666,0.00526267604735032,0.00531829406712704,0.00123487082719451,0.0493648820622433,0.0612489081642091,0.0868867449851406,0.0699498037642754,0.00460561010667589,0.0106400011010497,0.0557531736570363,0.0439809419002265,0.0461296508121638,0.0192305562727965,1
0.03041664591303,0.0076047813074257,0.0166197574775475,0.0113987801919414,0.000857255210618824,0.00127378632356524,0.0171001297669635,0.0266265012205823,0.00726284179465749,0.0114236447601972,0.000925361237026496,5.65546061590686e-05,0.000270455314095245,0.00012723961879171,7.38048811934456e-07,1.60484285431129e-06,0.000293872641509542,0.000711990237613299,5.15811888803789e-05,0.000129567494474331,0.0244152597646903,0.00546005378735891,0.0119765779017311,0.0082186686251991,0.000579871964083869,0.000902122282120204,0.0131880791545313,0.0197702235147132,0.00521162243590875,0.00832898368709131,0.00184585433686275,0.000114104256742421,0.000545306834254306,0.000256529742690466,1.46245926135435e-06,3.21880144503153e-06,0.000584812883669149,0.00141737944527922,0.000104071186481307,0.00025941930335991,0.0225248718555818,0.00847163154108411,0.0187669621557959,0.0127929446347996,0.000343553700694008,0.00140264356888989,0.0108756987333257,0.017893739784099,0.00810920809971792,0.00768560725428031,0
0.0181969083403798,0.0283957490532913,0.0101463809168587,0.00737070641762068,0.0149646234187092,0.00522733815186457,0.0169417674481822,0.0258090458572837,0.0160590596782111,0.0103911433442654,0.000332690498566674,0.000810160857529865,0.000102843161247402,5.44902030963806e-05,0.000222725215454552,2.71505266666184e-05,0.000284631285713364,0.000666765080746334,0.000258976872947203,0.000108518447822995,0.0146809087278578,0.00788668973671427,0.0035724004965957,0.00276263649211497,0.00527851140199887,0.00184502224693867,0.0106013507407963,0.0198069368870896,0.00444685835460943,0.00808725150102871,0.000662154445268557,0.00161208338627374,0.000205272993273042,0.000108545065162806,0.000445545084249761,5.43385784842305e-05,0.000570221802809357,0.00132948676079091,0.000515541873750843,0.000215932179329655,0.00838422616136163,0.0112791610258251,0.00358032942163846,0.00327269935136035,0.00694913319366606,0.00247775587375173,0.00704779259919155,0.016409450252432,0.00643920329076566,0.00823206136299704,0
0.0870277399542937,0.144972115346055,0.262764009341721,0.0437603229027935,0.0181471598491556,0.0241797632753422,0.109724078834315,0.062672768842008,0.204458851205938,0.0314893216339778,0.00760807285720954,0.0211225046624408,0.0693866295993375,0.00192348777340877,0.000327444862081291,0.000585030952790577,0.012085343550802,0.00393725452685068,0.0420121219950827,0.00099653955278454,0.0677556261699642,0.117192540753988,0.189346719574103,0.037307207471134,0.0148622138665986,0.0202368207068795,0.0902547477820169,0.0515999697540755,0.13707478099143,0.0247064253347424,0.0151436077404318,0.0420333642438058,0.138080966416357,0.0038287653365102,0.000655076317014648,0.00116663807176402,0.0240624628595763,0.00784531369845103,0.0836041843701893,0.00198312355601599,0.0512308830540118,0.116295573009872,0.143889084249314,0.0378997878068221,0.0142678343084821,0.0160209216857627,0.0573642213489419,0.0434452549652951,0.127477574458505,0.0224020991662402,1
0.0694359145678183,0.114287385945724,0.135245831620122,0.0864114129696422,0.0107044859854518,0.012326707370552,0.0612345233328039,0.0554950275379384,0.110471803192182,0.021431811132225,0.00484429795347325,0.0131178976323056,0.0183827266332763,0.00749581828883722,0.000115091005530661,0.000151861973816957,0.00376849756170035,0.0030950607344178,0.0122478013104252,0.000461526578033163,0.0588328026912808,0.0931912132304638,0.0928056581997694,0.0694200902631649,0.00795722000637842,0.00891498605434287,0.0514363789748379,0.04372892104472,0.0901349228241733,0.0163881259443294,0.00964135689704402,0.0261138986408451,0.0365815322039232,0.0149252690882887,0.00022910147805419,0.000303045305509549,0.00749914918449235,0.00615926571683074,0.0243904401151641,0.000918535675482389,0.07651546641554,0.104315591661373,0.0834523119524214,0.0679434873988207,0.00731323355396884,0.0123843877489261,0.0609864076131553,0.0425657583369824,0.106975979724842,0.0139785178220787,1
0.0300815121887851,0.0206118360453683,0.0156333792531158,0.0169351958468392,0.00079812261563186,0.000751093406944055,0.0182946476264929,0.0336403822067992,0.0142750477708115,0.00879827598887691,0.000909422510361514,0.00041532922223868,0.000241818751061975,0.000284346012461428,6.33343951662747e-07,5.52386635619701e-07,0.000333683070971075,0.00113722547740122,0.000199229590650808,7.77475175524736e-05,0.0240762630710841,0.014802786461407,0.0118047414330414,0.0120397906455276,0.0005346979202859,0.000524203132105517,0.0143852583783803,0.0278868634052215,0.0101694038701328,0.00707988317968704,0.00180977244210728,0.000838100361155125,0.000485010868960822,0.00056972280733407,1.26633366562525e-06,1.11353443027182e-06,0.000666703086814703,0.00226320895179766,0.000402010152279005,0.000154768058064226,0.0300821105507055,0.0231319524199935,0.0186137856021471,0.0193357557392937,0.000686706854467436,0.000783248614941195,0.0124472959936748,0.031338142244624,0.0159936513200165,0.00530682949096269,0
0.0392882096378018,0.0011134868397998,0.00122897173936537,0.00101653933806766,0.000667344741713433,4.49644967698685e-05,0.0121002684984089,0.0238285713773973,0.000751999264410951,0.00761487148964775,0.00154847558478089,1.214955985671e-06,1.48361213943115e-06,1.01971257319339e-06,4.47369414231333e-07,1.98131055957981e-09,0.000147057244956263,0.000569460346069549,5.51263721195271e-07,5.80658764467397e-05,0.0236662654446178,0.00081251781683469,0.000843343743829864,0.000714190114716087,0.000352279614410133,3.25963122917478e-05,0.00981874116103522,0.0188002442292008,0.000534440269296246,0.00614562538109716,0.00308428550446088,2.44854055272466e-06,2.98624867884891e-06,2.04751866456462e-06,8.88492027719355e-07,3.99320609177659e-09,0.000292732949293513,0.00113432043892697,1.11401029361897e-06,0.000115742302197817,0.022487470088277,0.00121064680657299,0.00121707195402981,0.00109669952961436,0.000216736655183861,5.09628007512058e-05,0.00708034147985823,0.0149215980727666,0.000834442624266384,0.00476950365649717,0
0.0830260148656783,0.150575024664126,0.199349755116444,0.0400610050745811,0.0225612501413568,0.0234699192447509,0.101098886567466,0.053990363530608,0.147499712744715,0.0392660715439453,0.00692317996013645,0.0227841527370937,0.039924578516433,0.00161193086894998,0.000511431476381007,0.000553605135030267,0.0102723464710796,0.00292928051692598,0.0218649721211294,0.00154747155216254,0.06036375305182,0.0946169805764531,0.143054669059184,0.0273432726868557,0.0163657104859989,0.0174230032549822,0.0764823795086095,0.0416039426933791,0.100428851934422,0.0277861715582424,0.0137809623681577,0.0453430603837347,0.0794620233897629,0.00320875424734189,0.00101781807913003,0.00110167176051762,0.0204419582469255,0.00582955444873756,0.0435118026616241,0.00308132094493213,0.0476365330864558,0.110279684462385,0.118501104185509,0.0256288145660501,0.0147771043560462,0.0185525472016755,0.0602627072862334,0.0318407914192184,0.0986891110876672,0.0289105765941739,1
0.0814524588622718,0.0598034676134056,0.120117762873043,0.0982471964709261,0.0159095696108645,0.0195127026694608,0.119295461583972,0.0546678605109832,0.0836744882074464,0.0327490103280567,0.00666682607369849,0.00359389341668996,0.014500136819603,0.00967488538266377,0.000254158865236792,0.00038258209452604,0.01430203607185,0.00300355963588086,0.00703639422693064,0.00107509314059571,0.0637009030213044,0.0479070225986533,0.0994609220429929,0.0799408246739358,0.0127972255440536,0.013347767821952,0.0735891543760501,0.0452431228292272,0.0623732352567449,0.0193205609458174,0.0132675599082378,0.00715216271225948,0.0288539207055074,0.0192788893826103,0.000505997816011996,0.000761377732079741,0.028461918753755,0.00597711631471439,0.0140026308642855,0.00214219592181223,0.0612106926192879,0.0528566299795095,0.0569861776327469,0.0781462871273988,0.0118104997872146,0.0144203545497218,0.091058020502314,0.0510485731284846,0.0507665849487276,0.0194144828672845,1
0.0491843369855647,0.00872023607351035,0.0358953628369325,0.0340203113337333,0.00324125132000269,0.00211145173882148,0.018383555023511,0.0273878055734469,0.00974816779366423,0.0209298635438034,0.00243092530196848,7.57325817717728e-05,0.00128763447384273,0.00114843075942097,1.05408197526505e-05,4.41188206928797e-06,0.000339611170108229,0.000751855797574529,9.54397628994122e-05,0.000440023989736585,0.0398675712760116,0.00652408389536434,0.0277584578507437,0.024755378253505,0.00235124903373254,0.00146139811199612,0.0140919345169627,0.0216166384616189,0.00733168776494457,0.016235317463668,0.00483777583870854,0.000151393960693583,0.00256966703491062,0.00230003269310766,2.09748493881513e-05,8.84795293844927e-06,0.000675867787040207,0.00149810314827107,0.000189986989871183,0.000875821930650685,0.0404171719000689,0.00998735377724419,0.042296617269394,0.0378115650019911,0.00352576888137499,0.00235129065704204,0.0155504474719337,0.0192981824402111,0.0113440398689523,0.0189214677780227,0
0.0242307896136231,0.000527526022471188,0.00270605403890464,0.00184613763901153,0.000526935932768229,0.000112926435324118,0.0115550279963748,0.0203177599766912,0.000607691207444807,0.00961129363515151,0.000587619051098879,2.77818828570087e-07,7.18084608878154e-06,3.36681908012243e-06,2.78896184177453e-07,1.26102696623504e-08,0.000133868121639243,0.000413897377623232,3.71112814909587e-07,9.27881487137686e-05,0.0189943041313666,0.00038155318882867,0.00200056737570202,0.00131367948733631,0.000306279870078709,7.77677618795417e-05,0.00888346384967924,0.0164321641460502,0.000431701223117567,0.00799324258103692,0.00117168166533189,5.54699077005661e-07,1.44659443940678e-05,6.75637517804777e-06,5.55161261517134e-07,2.52992061164082e-08,0.000266711227024421,0.000824636711233148,7.38520508470746e-07,0.000184701157704574,0.0210497953618103,0.000583653864923549,0.00283062798830276,0.00200703595185702,0.000305514204852778,0.000125107896990999,0.0077669612329634,0.0112736826659383,0.000677635261528698,0.00603964018456742,0
0.101146383071859,0.286094011253425,0.219585687197482,0.0267147021857283,0.0536593322566681,0.0381502296046581,0.0964468476800968,0.116103151734773,0.265591269487811,0.0377131254980229,0.0102614916654691,0.0822603965020968,0.0484594469991203,0.000716937109203303,0.00289346901240257,0.00146273465738004,0.00928771766885567,0.0134740274220819,0.070837862416503,0.00142349985985847,0.063658919850785,0.174113899144412,0.125445272637056,0.0153680062134564,0.0329820549561566,0.0236694125024617,0.0607248101863655,0.0671603213674592,0.15068339036333,0.0238120395232745,0.0204407497119874,0.163697716167128,0.0964343750702627,0.00142701845541455,0.0057583244923427,0.00291078556440802,0.0185422795917324,0.0268862538534388,0.14102227117057,0.00283858564034716,0.0702137841796068,0.231179641630993,0.157293886100054,0.0183232826569158,0.0357200610298643,0.0273995423178482,0.0681437415933645,0.0875030239258664,0.197731775002842,0.0295946727588611,1
0.125711401684548,0.153667300656084,0.231666226965832,0.0840654037269767,0.0131008374534596,0.018516004144322,0.128778709374152,0.110830270244961,0.252861529468394,0.0328775158567437,0.0158415773098906,0.0237254691058913,0.0539207774470232,0.00709453918509126,0.000172048019294009,0.000344500823549207,0.0166138627933037,0.0122701814846587,0.0642487056074149,0.00107798447644621,0.0933078747871401,0.125571709374188,0.192554903321057,0.057641914568591,0.0101538391215454,0.0142206077911559,0.0913809082717256,0.0872459382906884,0.206073311506856,0.0264168206598055,0.0315656678904314,0.0472191941345362,0.107319155631912,0.0141258774597233,0.000342798566269057,0.00068559080289975,0.0331142624325554,0.0244920924011963,0.127864365786331,0.00215349689906993,0.0742678282484252,0.152049037442999,0.193907403536132,0.0670834254793166,0.00895023400383962,0.0117784158647716,0.111985224589531,0.127142188873846,0.224268566340102,0.0373303469892755,1
0.0257364360082995,0.0337608512762607,0.0820754669786367,0.0337351464625757,0.00246962039694801,0.00191795758633038,0.016994230647031,0.0321234676364702,0.0790454009582519,0.026884679416351,0.000662726884542625,0.00114303523649983,0.00674216523829996,0.00113909636849917,6.12244132962205e-06,3.68588718344366e-06,0.000290235884126659,0.00103704584661861,0.00626476428189914,0.000725508469070256,0.0184946755191613,0.0250706594186621,0.0597398212671246,0.0248554403003877,0.00173645512506471,0.00135841981793127,0.0117746377874157,0.0246894012374398,0.056582708890763,0.0175375693792512,0.0013217766821723,0.00227706735345364,0.013444650766064,0.00227141579930624,1.21879069698382e-05,7.34579135177513e-06,0.000577533192194457,0.0020636319410294,0.0124813168619794,0.00144466191456816,0.0227760127392396,0.0399240648769501,0.0895224465532814,0.0388483820606633,0.0025367094862459,0.00217461684153535,0.0120068373952304,0.0181821015333869,0.0890329279120676,0.0170156120200917,1
0.0106628590599775,0.00236974730993946,0.00500656453073724,0.0136008156161444,0.000526985971644952,0.000117571700734628,0.0101177200989205,0.0264139704559157,0.00471557779575817,0.0100791973885831,0.000114237747355488,5.60748844536669e-06,2.51612241321128e-05,0.000185849449445736,2.7882540186122e-07,1.37923866889971e-08,0.000102872652756148,0.000699129056847061,2.23195060099967e-05,0.000101786934726201,0.0084608104640904,0.00162776956214308,0.0036928740850197,0.0090886846865801,0.000271632268882744,8.07113734467474e-05,0.00831153278604825,0.0210102811804286,0.00327622029199766,0.00804461662571228,0.000227362030330203,1.11948611366546e-05,5.00976811412014e-05,0.000369902162462998,5.54874851300078e-07,2.75458330012665e-08,0.000204726504879301,0.00139332974290188,4.44431729620421e-05,0.000202867955731239,0.00773698451784632,0.00262205448657316,0.00532023648646962,0.00623201624090782,0.000158082042979451,0.000130092729110239,0.00530089884631736,0.0150411867291918,0.005214573777747,0.00589784117911238,0
0.0208626065862625,0.144101138031665,0.104633318207073,0.0235240013618686,0.0178724067259957,0.0178025783742438,0.0402025866605842,0.0628815742459497,0.0925924386754192,0.0161889769526661,0.00043658192407146,0.0208614802311747,0.0110028492343098,0.000555583151750238,0.000320903166592761,0.000318368487008316,0.00162192183586973,0.00392704781238809,0.00861573778044654,0.000262777275064624,0.0139296297689455,0.0755473347559658,0.0519995951909834,0.0132718257055946,0.0109913001645683,0.0109487139824692,0.0238559532635638,0.0393461935025617,0.0500838550440253,0.0123656681077283,0.000869646755663973,0.0415176981349136,0.0218951007373162,0.00110614722890044,0.000638719396304461,0.000633708433184295,0.00322989628647629,0.00786150495217405,0.0171460014287812,0.000523538852437177,0.0114891892781288,0.0800600804921459,0.0631948353056029,0.0122928510090282,0.0136002329108441,0.014177654561647,0.0280254313768042,0.0380914149508486,0.0517183054084981,0.0105593587779161,1
0.0787765460922098,0.0682378789649298,0.157257258408972,0.0303855559285168,0.0145119694598863,0.0154398781939977,0.113601166216532,0.0981593577896898,0.125367463813062,0.0263567386687645,0.00623682842840515,0.00467838138251272,0.0248417252200145,0.000927125296039167,0.000211355421619367,0.000238853916914527,0.0129698664390555,0.00963890391961258,0.0157863331142448,0.000697312849033455,0.0607656609188567,0.047631506944098,0.124455113193899,0.0214197651311567,0.0102913798192597,0.0107913274995195,0.089489464251781,0.0776440233849706,0.101017057451732,0.020697101943717,0.0124113226995585,0.00931025987298361,0.0494471706816724,0.00184561361186232,0.000420841192250443,0.000476032080299276,0.0258102296333563,0.0192258163492261,0.0314225706340041,0.00138846877946979,0.0616542376836705,0.0480307666921292,0.0888365470073982,0.0161053560947421,0.0120151536832364,0.00805951136016264,0.0642271096730784,0.0771822293474079,0.0783957800291828,0.022219831073257,1
0.0298373873415497,0.033324214332593,0.096207484542123,0.0499475810145873,0.00624986371050535,0.00451894550809901,0.0305648796413102,0.0350946503172168,0.0505597362465195,0.0247445680963079,0.000894683867093412,0.0011119991688453,0.00927928958474638,0.00250690627680947,3.92305560068546e-05,2.03518074257693e-05,0.000936771288672507,0.0012377655969326,0.00256524791816674,0.000615350269057449,0.0234655861651983,0.0266347353069672,0.0684824269004298,0.0360201350052347,0.00343556143698871,0.00342265564250303,0.0239110908077713,0.0276159666532915,0.0388267932727235,0.0195789249657063,0.00178045264958419,0.00221694241921866,0.018488664843238,0.00498909248218364,7.80889142655218e-05,4.06707695255972e-05,0.00186614741590957,0.00246315014501595,0.00510864485228047,0.0012245635175997,0.0247312018220817,0.0315323534454879,0.0657810037300419,0.0480352892470199,0.00391542137175047,0.0053727273490002,0.0273380468041111,0.0309888929652346,0.049478400664396,0.0168198489163626,1
0.0100313523860851,0.00297446225385342,0.00480747828356269,0.00371621278819717,0.000720024995126692,0.000472577142137056,0.0126918867586154,0.024831189538156,0.00240820481729409,0.00870576050651589,0.000100936021435808,8.76411553103188e-06,2.27574153195179e-05,1.35038289726673e-05,5.20733566603911e-07,2.22630553150677e-07,0.000161681853183029,0.000617848205413162,5.76060334082012e-06,7.61662711664351e-05,0.00821467572240891,0.00216390773535514,0.00349687410544291,0.00266729522821829,0.000470709569940924,0.000290142746011207,0.0101214235556661,0.0195726931495311,0.00158691540251649,0.00690757217746746,0.000201002800381343,1.75674229778901e-05,4.57543075866056e-05,2.7246485256389e-05,1.03628108210112e-06,4.44842656358466e-07,0.000321955021630114,0.00123131493019755,1.15312496091516e-05,0.000151568197609083,0.00651908689053676,0.00330094820901333,0.0054673101108461,0.00410820111254836,0.000273022338316766,0.000374079974861471,0.00806591757436626,0.013380968786379,0.00257485433399739,0.00572674206195683,0
0.0278154878919895,0.185981708896358,0.229477111566288,0.0708932674814007,0.0142057718414249,0.0125565644316671,0.0449513289934975,0.139726765372175,0.132623833472527,0.0237548117163568,0.00077627930728557,0.0346872149673054,0.052843962765514,0.0050159792136856,0.000202764391649697,0.000158145966418025,0.0020211561460113,0.0195843412413047,0.0176773697110535,0.000564819603437561,0.0175327690628241,0.0915806820631062,0.11850520811036,0.0302608276086064,0.00812856850307759,0.0071479771123139,0.0274351321390999,0.0776702683216709,0.0720537421980888,0.0153387749035826,0.00154609697283478,0.0691024457477496,0.105239117398313,0.0100164560653667,0.000403553344052859,0.000315020421563001,0.00403135990217911,0.0390099666209444,0.035178003454238,0.00112624340664438,0.0156593836357529,0.126091705329951,0.14858791547891,0.0373166679608478,0.00815259558236243,0.00959920615209787,0.0241415734255129,0.0966723103871193,0.0892108151650427,0.0112700224888633,1
0.0720618491137745,0.160386603181726,0.219208912356922,0.0873846363731716,0.00989454859148772,0.0145129061334521,0.0894602936103104,0.101153890198856,0.163420977565149,0.0245776367994446,0.00521417074833995,0.0258321175340166,0.0482505671738985,0.00763375412508133,9.83553278765497e-05,0.000210914926215974,0.0080245307017893,0.01020742010208,0.0268375972224244,0.000606367288822047,0.0576601169874467,0.125793857836345,0.163826755890082,0.0622035341501203,0.00744766358404463,0.0109189061289126,0.0701695775418934,0.0766877784847558,0.133675448917869,0.0201587311536502,0.0103808997624907,0.0514267192999851,0.0960576991147157,0.015231333521962,0.000195750511000583,0.000420481049513398,0.0159875459144768,0.0203868297749776,0.0534096367249398,0.00120739198174354,0.0515909656218954,0.180495099681697,0.161230569331851,0.0675243790872542,0.0058938980104773,0.00748684812940262,0.0625260944108881,0.0578351744210604,0.168785623267811,0.0141082466321506,1
0.0226372053431061,0.0734061641029965,0.102913614110117,0.0580450745655766,0.00455267599285963,0.00461035369420598,0.0414246737616909,0.0708545164924297,0.0497689993790689,0.0146970803738021,0.00051230937632888,0.00540762551643298,0.0106430671985907,0.00338269492069661,2.08223423552055e-05,2.12413399098657e-05,0.00172384242406569,0.00504295985312183,0.00248772420197282,0.0002169530485943,0.0181396375071246,0.0607708591881314,0.0742484998688351,0.048539914296562,0.00356615834055697,0.00313912822507789,0.0306063035294904,0.0522550866262432,0.0387498805195847,0.0115413879258625,0.00102219081447826,0.0107690281493733,0.0211806591439274,0.00673500855723573,4.14444222129212e-05,4.23899292040703e-05,0.00343121572118568,0.0100381073632777,0.00495212517283191,0.000431845306891482,0.014886063435645,0.0547452950709849,0.0693628242493043,0.0489324121657083,0.0036386851543549,0.00390604683688786,0.0342412255321176,0.0529495231693575,0.0487585552359693,0.0140635398380753,1
0.010547956365024,0.00815556040716578,0.00788913503117027,0.00906307910133439,0.000909572483809441,0.000370639919187197,0.0103343145541402,0.020984700873323,0.00491904561118785,0.00985452435286784,0.00011149218148891,6.53136019865752e-05,6.11532646887949e-05,8.08063883893218e-05,8.27069678233689e-07,1.37349589098951e-07,0.000107310127361871,0.000442483044149944,2.38117600772128e-05,9.75034937653641e-05,0.00892494175159608,0.00590021090121636,0.00554301790388432,0.0065772427715601,0.00060786989422603,0.000191227317096802,0.00795416864318287,0.0173936142373869,0.00357174314375706,0.0078943937047808,0.000222147083636736,0.000131499279154444,0.000123076642781929,0.000162537051730622,1.65024828587849e-06,2.7295434298544e-07,0.000213570992716685,0.000880624522912076,4.78892681846264e-05,0.000194118093146955,0.00741541390757931,0.00907750103926982,0.0087845592768038,0.0101213427979037,0.000388805246662181,0.000192482036542104,0.00638490642118239,0.0110780686351936,0.00547647750225259,0.00986927095726461,0
0.00802235289274564,0.000430158359943513,0.000849729872695589,0.000711449488661845,0.000659585517973167,2.39175421559348e-05,0.00860409443803187,0.0227689000241209,0.000348443911549235,0.00661135218522943,6.46813531732431e-05,1.82986402996252e-07,7.21547791603007e-07,5.05141670366961e-07,4.37217955750099e-07,5.74596456830242e-10,7.43440542714552e-05,0.000520455812531384,1.21161397865312e-07,4.39165013909179e-05,0.00622326904419049,0.000312176654246673,0.000540927627516765,0.000512141406072663,0.000382823470779218,1.78998130304862e-05,0.00701777742590852,0.0183583118204694,0.000218752494665771,0.00531269388513892,0.000128702987336348,3.67101951311647e-07,1.4376060895988e-06,1.00857573880825e-06,8.69234713980479e-07,1.14374808640494e-09,0.000147981957782791,0.00103610452036095,2.41741638537482e-07,8.74064250393958e-05,0.00437500538645649,0.000476449018039947,0.000432575052399911,0.000564411365836757,0.00019587807250401,2.7669648137845e-05,0.00630725511008401,0.0105012976958407,0.000290805043191311,0.00348055642632184,0
0.0112193587990735,0.0497644504152727,0.0240304074934504,0.00952818536349978,0.0169883271449593,0.00780947128482132,0.00987221389692651,0.0252746807097731,0.0230323992299362,0.00940420514865093,0.000126379095601095,0.00248782073222032,0.000579581601402682,9.12425072676754e-05,0.000289862807487972,6.12916244590042e-05,9.7934270807803e-05,0.00064198094342857,0.000532949307613338,8.88688648073818e-05,0.00864705562637303,0.0328455847217924,0.0153053714714107,0.00584903019271445,0.0123949856484577,0.00471397673773156,0.0081497040883166,0.020995511988743,0.0142565871085862,0.00764576426988838,0.000251616331706347,0.00495187576463201,0.00115414380190847,0.000181572605333739,0.000576995964961304,0.000121970860329884,0.000194877246323477,0.0012774640363366,0.00106077368636269,0.000176849860573118,0.00674587634080937,0.03099675236838,0.0132543171323378,0.00434445689901234,0.0084693596007949,0.00400651543596918,0.00495150350879942,0.0162430295517423,0.0154676466582061,0.00627494924134457,0
0.0143831858314291,0.00852869356651719,0.0273732552415643,0.00248538037120241,0.0125291062257154,0.000365663534702234,0.00820745572213903,0.0268374565685604,0.00535563087971984,0.00670929390228597,0.000207898263498317,7.20990263179081e-05,0.00075205027829239,6.20749423311304e-06,0.000157592421561027,1.31748877641009e-07,6.77000325253314e-05,0.000723216870115066,2.86485462554112e-05,4.51715009573284e-05,0.0113747292603071,0.00631947780098993,0.015503558320971,0.00136445294286651,0.00999637273172552,0.000189794410607992,0.00631293940937667,0.022892207005161,0.00377716899102902,0.00532568608569709,0.000413732697218811,0.000144476406302683,0.00149758499460701,1.23535643109719e-05,0.000313770353635796,2.64787935805082e-07,0.000134700191513742,0.00143984871270468,5.71871981149744e-05,8.99574914819653e-05,0.0093273378711856,0.0096484002259104,0.0163757837151258,0.00102926894710288,0.00662394796210623,0.000311582204290248,0.00416092295162756,0.0140436101146476,0.00584248314689065,0.0050662220150055,0
0.0103342275784727,0.000485337530131718,0.000912016867753414,0.000264392530201836,0.00889931425668953,0.000398722519789284,0.00793532704379989,0.0181059266622072,0.000558153819280617,0.00737357268525498,0.000107043259692916,2.33390317430964e-07,8.23393984322452e-07,6.98431443306078e-08,7.95882012870867e-05,1.59771225083384e-07,6.32848727558927e-05,0.000328593492575207,3.11362984121231e-07,5.46007680153296e-05,0.00842970108334042,0.000352449585287151,0.000621842275907558,0.000139497355992304,0.00702624829818943,0.000149498069166391,0.00639466201049647,0.0148282213308422,0.00036517857386845,0.00605478859198743,0.000213304235823249,4.67767602649757e-07,1.65068125419939e-06,1.391158293971e-07,0.000158378646523597,3.17678804768485e-07,0.000125905734097823,0.000654765879451361,6.17137994352618e-07,0.000108697280575851,0.00500904003814129,0.000537434879676362,0.000742375163941938,0.000140090276116464,0.00561380329414469,9.92847371577669e-05,0.00340587793593254,0.00839244980326865,0.000347211598471313,0.0038493718951924,0
0.00995881752866641,2.58570731981835e-05,0.000641558681082307,0.000326730423622817,0.00133447821316647,0.000290812662545147,0.00902163866554095,0.0206944755193975,7.57694415890884e-05,0.00897544068021597,9.94767784912956e-05,6.67469966978999e-10,4.13598132795801e-07,1.07248879914939e-07,1.77812109129122e-06,8.47949546767864e-08,8.17163847685393e-05,0.00043028872544615,5.7221459936568e-09,8.09633195778526e-05,0.00814482651537358,1.87016482865406e-05,0.000308349166460498,0.000108738669129696,0.00085121268976727,8.76583734399057e-05,0.00742067423907999,0.0166223375116951,3.78478208805388e-05,0.00716910082911569,0.000198149700610587,1.3326863252975e-09,8.23127683078518e-07,2.12368119042116e-07,3.536673309679e-06,1.68924289008542e-07,0.000162697152596918,0.00085639609911074,1.14341032462815e-08,0.000161111722074497,0.00586833794027741,2.8605737571729e-05,0.000200163165106712,6.68916076326285e-05,0.000495011437423375,5.7807769855685e-05,0.00582722334480966,0.0135431556920159,5.21897586300375e-05,0.00555298019199652,0
0.0308148565336116,1.39897975105454e-06,0.00064765334336129,0.000396716310368543,0.000841486758471966,0.000151697300384401,0.0118550937634253,0.0245833785524338,0.000231380647957049,0.00738765719393137,0.000953171165050726,1.96381542963044e-12,4.21543080787191e-07,1.58039125261184e-07,7.11651884712366e-07,2.29928206186251e-08,0.000141210024615823,0.00060724425300094,5.38059393535005e-08,5.48236403130605e-05,0.0188249914135215,1.0001364497346e-06,0.000346654762274558,0.000158675061437616,0.000523157662050715,5.62252644400993e-05,0.00936364086783387,0.0206421957928906,6.86815678872439e-05,0.0059261825976675,0.00189793820021619,3.91101778950622e-12,8.37766580248066e-07,3.14375535395559e-07,1.41619263209908e-06,4.58717014071764e-08,0.000281044665321619,0.00120852366042278,1.06798427835814e-07,0.000109124854082641,0.0189820745353509,1.54669550150782e-06,0.000184050158682403,0.000100000376098604,0.000274300743668299,5.81149696726255e-05,0.00805642926005897,0.0148097336815782,3.43219815386673e-05,0.0045099555281134,0
0.0489216143188474,0.000948821428747673,0.0384961445810211,0.000402490046603919,0.000715173965596085,2.93582901318724e-06,0.00938033852192727,0.0503461503073879,0.00608611334827307,0.00689535838572861,0.00239638121269626,9.03984468694815e-07,0.0014872486034202,1.62702679788146e-07,5.13976046033308e-07,8.50922381886657e-12,8.83592390835604e-05,0.00254237772943768,3.72164378443432e-05,4.76512990431613e-05,0.0398004357754079,0.000321856614382955,0.0252676903955697,0.000175964089034544,0.000388670176829379,2.03619265379414e-06,0.00692833425840202,0.0415252229173867,0.0031663519490905,0.005680026858829,0.00477761370200069,1.7997261524045e-06,0.00296176006282366,3.21457635557813e-07,1.02177723071286e-06,1.7085551565699e-11,0.00017590060497696,0.0050643522677051,7.40708262662546e-05,9.49570231834479e-05,0.0312608659740997,0.000304896040977878,0.0209295049931482,9.78436378897877e-05,0.000227452796295306,3.26641442439719e-06,0.00517519867127117,0.0407060395659052,0.00243739672059125,0.00450823281400593,0
0.0778432424632202,0.00350391754918156,0.0330671882463602,0.00032812334655452,0.000756354345995185,0.00082501832315322,0.0545117882633445,0.0657748395688246,0.015015932971356,0.00762338847154301,0.0060832435021051,1.23321813819833e-05,0.00109781167089495,1.08181121933699e-07,5.74870333071987e-07,6.83849697399103e-07,0.00298088081090641,0.00434742792923044,0.000226608126259569,5.82252067742592e-05,0.0576291543502845,0.00174034323699756,0.0254584546719841,0.000131212830514195,0.000472574852928559,0.000278326867958655,0.0329718734000186,0.0491139159452102,0.00843441635567472,0.0062873266352636,0.012112145041867,2.45479563826813e-05,0.00218569228455494,2.15305097949803e-07,1.14156792827256e-06,1.3610855833564e-06,0.00593747116920499,0.00865179792411445,0.00045095291200903,0.000116048009696547,0.0680842058211187,0.00134377558513485,0.0245287183265809,6.66938410585243e-05,0.000231122959838558,0.000212461457738191,0.0313610909981269,0.0528546117402382,0.00705422642064772,0.00550416776846306,0
0.0308230501688087,0.000391173220475374,0.00237883079661095,0.000559624587117613,0.0128761731518173,0.00025573945406152,0.0238513157396288,0.036679466341481,0.00150438444296968,0.0824223926512855,0.000954521637419907,1.51142635022136e-07,5.51658100080171e-06,3.14668929202042e-07,0.000165083684430539,6.54930070131395e-08,0.000568089253278076,0.00135201195119684,2.27239545940999e-06,0.00682319558495341,0.020610685290684,0.000279881629795432,0.00167159933983353,0.000284545082223911,0.00220345079094043,0.000122259368235931,0.0186435494697169,0.0293296540668325,0.00106206294517302,0.0380225836588298,0.00189962371590878,3.03401531848021e-07,1.11460981468809e-05,6.26275240744899e-07,0.000330022767946643,1.30301285671607e-07,0.00113405682166426,0.0026906291312081,4.52406896961423e-06,0.0135819438036952,0.0158692996575556,0.000448249134844088,0.00228097391140938,0.000169001358486674,0.00305393515036484,0.000116670396061808,0.0201457458243065,0.027970014574512,0.00161429792523924,0.0436466648867829,0
0.0568625167716102,0.0011997302479459,0.000847969484940705,0.000229475840745602,0.0823073561733812,0.0229157763139912,0.227618829530528,0.0288951142542478,0.000240933301950719,0.182476564356985,0.00324938211866216,1.44650338259679e-06,7.2266450725599e-07,5.29039965099613e-08,0.00680840855785441,0.000527757677571208,0.0520705330785794,0.000837803427987069,5.83312900551828e-08,0.0334591988153334,0.0438118063274674,0.000543712422818588,0.000474767663063225,5.59319134850733e-05,0.05898895038399,0.0148484540316251,0.167620308249158,0.0234419927196652,9.65867125760463e-05,0.135211442242844,0.00646644616837584,2.87753048461559e-06,1.43779269111875e-06,1.05003593418003e-07,0.013548851805331,0.00105024782908039,0.103620310313405,0.00166844441279786,1.15841182156966e-07,0.0665887983767111,0.0370138649435012,0.000343550230064381,0.000281057045094015,3.88172222117852e-05,0.0566459616980857,0.012527384091361,0.155776974791777,0.0208505005935112,9.23681944915694e-05,0.168430738096313,0
0.0301951831824752,0.0719808639993783,0.0237010789671345,0.0258335698330523,0.015647137644279,0.00596322563694809,0.039310992202359,0.0276846382348607,0.0701183919591195,0.0188928155903346,0.000915717101075204,0.00514653482055261,0.000560501721152851,0.00066602209281795,0.000243142186208983,3.54355716630923e-05,0.00155309892588474,0.000769867071652555,0.00490260193047653,0.000354623717874688,0.0197753826412475,0.0238907955193636,0.0105383103335898,0.0120351842202035,0.0110800754643258,0.00369471079023384,0.0277628329313157,0.0203120170083572,0.0223021464112651,0.0150196681523771,0.00182288751540506,0.0103018974708399,0.00111943809172879,0.00133002928003194,0.000486740483269377,7.08151655707347e-05,0.00309056178089667,0.00153237943983067,0.00979433803606719,0.000709757923678736,0.0164095193262414,0.0261902102603739,0.0084020811273619,0.0114302133007393,0.00887065366141642,0.00354731143389864,0.0185592257478642,0.0149756551242674,0.0311638341486706,0.0112202105597427,2
0.228611223984302,0.188794448660984,0.22630977929816,0.0454104712772926,0.030502309405858,0.0257278325959651,0.176700714579026,0.155710949526942,0.163238709863564,0.0327150506579957,0.0524873032202854,0.0358139534667549,0.0514084275378736,0.00206512939806954,0.000934750123942512,0.000664946701467554,0.0313554821175583,0.0242553888169633,0.0267742410395782,0.00107487760249356,0.170900240742246,0.157460932975737,0.156461971795109,0.0354042311947977,0.0249476053989488,0.0201561227119773,0.140150181833499,0.120711958042898,0.14064662904433,0.0247803927427917,0.104487079420118,0.0712770155464129,0.102366861549756,0.00411662845542096,0.00186030122708798,0.00132337568665555,0.0624204481572515,0.0483796342382083,0.0532872250587552,0.00213976701048778,0.138177803169672,0.128798755104973,0.152178215459987,0.0305744083430873,0.0225865472221884,0.0133690868379881,0.148893712607808,0.0834494349225484,0.123346313383875,0.0261141207999512,2
0.275500217143827,0.163205244346827,0.159539016045801,0.0619491302520605,0.0237164354126063,0.0232570101882448,0.221178307137926,0.205087401004821,0.142603409836466,0.0316230834237533,0.0762059464518889,0.026719424718911,0.025498239145575,0.00385678748324622,0.00056288422488633,0.000543487957066326,0.0491656138149265,0.0422176535319641,0.0204049963133049,0.00100494689615022,0.208913117720948,0.135020464176084,0.131086713145852,0.0463153482137991,0.0192941213049749,0.0194118765930668,0.184512713827339,0.165222794125679,0.115740129747951,0.0230115124046397,0.151724657235754,0.0532217703822507,0.0508217245153757,0.00767516404143952,0.00112253900187351,0.00108163325361398,0.0978365699872607,0.0840660811319443,0.0406386274631111,0.00199989118121193,0.202507566339504,0.1545820407299,0.118433454754084,0.0421054087685907,0.0170274583660072,0.0189070281625237,0.199868398264302,0.167296771044496,0.122649420371037,0.0248097133099607,2
0.0561304828900349,0.0265527390119133,0.0770756837371653,0.00806933191463453,0.00422813096958339,0.00553280689061299,0.0703634836003087,0.0727348326751694,0.0479058220213694,0.00759005537104591,0.00314366262133361,0.000704160541461661,0.00597007274701453,6.4673811755636e-05,1.79484010475076e-05,3.07290685257563e-05,0.00495123599403673,0.00531186163287212,0.00229544897307258,5.7757344138754e-05,0.0438288679306562,0.0205810615451644,0.0616247125877031,0.00597032876713549,0.00304853538953254,0.00392800423581137,0.0508232575337905,0.0559722954227921,0.0387382003144622,0.00568080577495094,0.00627855731965719,0.00140561870911091,0.0118805993187527,0.000129464330224439,3.57316331354822e-05,6.11838724541707e-05,0.00987747211635851,0.0105756467160754,0.00457879193309937,0.000115072730283235,0.0325274700709801,0.0294564591939159,0.0646499825753972,0.00931454743493686,0.00468502277710933,0.0061884553959052,0.0716293232791076,0.058638566492624,0.0378470851358904,0.00410971944577089,0
0.043434905819894,0.00210619893542278,0.0164447321482496,0.005613244317912,0.00373484857605033,0.000909603940442411,0.0188084950180496,0.0336364025926141,0.00761762071980536,0.0116828266767463,0.00189474038531712,4.44658820589892e-06,0.000269383020909486,3.1590683206112e-05,1.40189862395928e-05,8.26245182625673e-07,0.000355521350417409,0.00113709132764853,5.67852283348785e-05,0.000137132419945769,0.0336034111953627,0.00151298907564665,0.0114408244460546,0.00201702361787275,0.00195229556175032,0.000384967364421874,0.0146488395525254,0.0276439013862184,0.00459214722991172,0.00961722679158031,0.00377185744310898,8.86016337503678e-06,0.000538460669835308,6.2941165828772e-05,2.78965733556361e-05,1.64949301946329e-06,0.00070750318838339,0.00226281147844599,0.000114529288910896,0.000272912851218814,0.0264680023392536,0.00233186872642476,0.00896204603603452,0.00207940213258303,0.00159451752182016,0.00034410669689365,0.0114580633256001,0.0309087815775034,0.00505463532789614,0.0117833078461431,2
0.222627678497644,0.303215944394904,0.265130608585147,0.0550513247744974,0.0330080103519748,0.0228223580383133,0.195301633616712,0.160550727947208,0.238169879701306,0.0335821401956143,0.0498078797207704,0.0923773970288811,0.0705505019905428,0.0030452136351423,0.00109481998897084,0.000522979622424041,0.0382995611014313,0.0258637154652399,0.0569474540251307,0.00113063256753555,0.168315245830417,0.241313910809641,0.194848036773941,0.0437879261740419,0.0265730330983146,0.0190976954404614,0.134010611484214,0.126934159203471,0.191546008143027,0.0289192168053673,0.0991218533740475,0.183855053646674,0.140490374699592,0.00606060195687551,0.00217887082500783,0.00104122207539501,0.0762498937327772,0.0515108213156693,0.113387182046593,0.00225271720139479,0.169395064339812,0.306992976480341,0.162042249865175,0.0286834839116929,0.0289136129681656,0.0170887148729058,0.0966165415827389,0.105063181802235,0.167750507021818,0.023790870279245,2
0.137723439647212,0.128247088157662,0.14930400307198,0.0501813318785831,0.022726528096793,0.0257506871863841,0.273128601765417,0.263020572470172,0.126686564838042,0.0593607774473201,0.0190629785368402,0.0165086858685763,0.0222973904483076,0.00252970617031416,0.000518436969516153,0.000665657744898785,0.0748869220768487,0.0694991920117094,0.016041991788301,0.00354132093969647,0.113183461880922,0.106221604490661,0.0964096117102812,0.0397925181429194,0.0188222420199176,0.0217315690287106,0.23273342048968,0.223596793062279,0.0989452805368393,0.0487667992273114,0.0379347481118572,0.0328728556831529,0.04447749825655,0.00503512007752221,0.00103233186072645,0.00132542547791003,0.149111396246281,0.138330923002609,0.0320096638599063,0.00704730120418125,0.10105030226959,0.0880040940193173,0.0708343611558999,0.0412284782360948,0.0192416073437976,0.020856811239355,0.291886329625511,0.260641480268478,0.0975091837070657,0.0579201956641616,2
0.0481579952040188,0.0795416844453576,0.0515513080116759,0.00838548963862327,0.00424810091179268,0.00389483402010854,0.0698395503429105,0.0719000921381622,0.0597969599768385,0.0120937860332724,0.00232938696986665,0.00635858787579777,0.0026706981323076,7.0660602206366e-05,1.80237962676667e-05,1.52406610678438e-05,0.00489030627679636,0.00519557626680983,0.00358838749912417,0.000145609254346337,0.0357551010367894,0.0581690491143872,0.0410354561835567,0.00601732759209054,0.00309804460144437,0.00280003510588477,0.0504329745715302,0.0516119954859103,0.0459101922411724,0.00962826975518171,0.00463657924966516,0.0126535850219872,0.00531484573021994,0.000140617730612697,3.5979579765409e-05,3.03320073169073e-05,0.0097431794929854,0.0103389060032776,0.00714593830064361,0.000291138505005934,0.0387043792787664,0.0501573448342171,0.0294162742000788,0.00953527114290465,0.00467708634875663,0.00435622626862356,0.0723328525108838,0.0655269022846824,0.0392063616138048,0.00773200188243232,0
0.040548125344025,0.0223617793359819,0.051463887804747,0.00193337238508889,0.00176856615515089,0.000602188692533668,0.0296240261499648,0.0334117248917284,0.0369617897600788,0.00851781444587768,0.00164753536189931,0.000502558436345731,0.00265997586585057,3.74829194458042e-06,3.13566127824261e-06,3.62338413715302e-07,0.000881427150592426,0.00112148386763735,0.0013696065823378,7.27586198049058e-05,0.0325724144823792,0.0178691612328986,0.0389800521820579,0.000942115221390265,0.000642660405070903,0.000262969840987503,0.0225778055524355,0.026968954636848,0.0305406135101382,0.00711008442918117,0.00328342957795576,0.00100008949603483,0.00529515651299567,7.4577973360425e-06,6.24332692779221e-06,7.23157791210766e-07,0.00175456557765054,0.00223221007188919,0.00272888599635185,0.000144947064641929,0.0339409718874258,0.027076254785207,0.0275123524294941,0.00069021981047437,0.000431770750535447,0.000160045714303026,0.016254901204654,0.0212801430720231,0.0339456277307776,0.00590273815661428,0
0.171631958692866,0.19386707507673,0.149481076450784,0.0394817322394156,0.0308817356473804,0.0296352593505427,0.225307254185933,0.117010723416274,0.152094705059987,0.0251429970462399,0.0295952082903285,0.0377330749767269,0.0222981278121777,0.00156613964542147,0.000958362430623618,0.000881917502111666,0.0509916971097385,0.0137540275116925,0.0232191713419488,0.000635106052733696,0.115940307530213,0.154893256638077,0.115130107218679,0.0296525263428878,0.0230679902997156,0.023841483438733,0.165364742982232,0.0946795732453507,0.124224319727112,0.02138664099992,0.0589045356232347,0.0751287231896435,0.0445286619605368,0.00311711301071059,0.00190723853967818,0.00175574407675233,0.101489859024245,0.0273765519872351,0.0462357233925791,0.0012640826132107,0.0971512749627007,0.134712036354247,0.0749976843006015,0.0237162999078624,0.0246778436782206,0.022829889123235,0.167976937151549,0.0761267288148076,0.13152209954487,0.0210493322050858,2
0.200060462058832,0.165567421491385,0.181863082015366,0.0548976227053841,0.0123830351299572,0.0179632474513855,0.291437791897536,0.287333881751509,0.156685497685806,0.0662751428597644,0.0402223606319611,0.0275033818570795,0.0330462056998314,0.00302862333763429,0.00015399762541392,0.000324078721343374,0.0851894071597746,0.0829133711905866,0.024632390915748,0.00441429337815175,0.169957245906436,0.137319909152041,0.146258476169728,0.0390472313675,0.00972096871640814,0.0144159205574591,0.226939012158767,0.23750256412511,0.125621818024232,0.0517999029717137,0.0800432646960452,0.054778433634903,0.0659538296606534,0.00602714012032396,0.000306566932185896,0.000645135146710913,0.169698507799019,0.165058716846056,0.0490588837041955,0.00878433921352837,0.165153062632719,0.105457644953611,0.164553720925054,0.0411743021995516,0.0106253970386595,0.0125627894554454,0.273842485661007,0.308820881762991,0.156165310710032,0.0637037034357188,2
0.0650844120627188,0.0369727851320638,0.0399616100166514,0.00190694713807315,0.00175893664215032,0.00416022842008146,0.0748990523706336,0.0880774238201346,0.0326346366841857,0.0214491394778955,0.00425690223259761,0.00137367801399993,0.00159787336455378,3.63737831186261e-06,3.10392007982124e-06,1.72253673065098e-05,0.00560310209663459,0.00777066852362056,0.00106868099515765,0.000461874354326031,0.047801925370388,0.0265546890976232,0.0281611745556169,0.00111683113296767,0.00125311699121062,0.00285383945515443,0.0482401942207322,0.059402620942878,0.0243368342804857,0.0180598320251655,0.00847144180360451,0.00273371409694995,0.00318673255965019,7.25548316263118e-06,6.18139647943886e-06,3.44466681550679e-05,0.0111849318649852,0.0154893663020663,0.00212832460038914,0.000919622396983459,0.0729466662832138,0.0412915538558179,0.0445069319969315,0.00168287189134326,0.00188212384452919,0.00453071538612583,0.0542951039866925,0.0847224826916593,0.0336477473952739,0.0185715761861091,0
0.00822789641586544,0.00209649722659723,0.00218454001538816,6.54520935473747e-05,0.000683254420614043,0.000307714802607296,0.0268809361414084,0.0290448794086722,0.00665230194413564,0.0142087272283423,6.78799191326823e-05,4.41718632711218e-06,4.78045868881253e-06,4.22452882539362e-09,4.69123281860292e-07,9.42674290982284e-08,0.00072236136300161,0.00084644275383926,4.39090931746417e-05,0.000201003343129997,0.00562886877747929,0.00147228898503084,0.00153779134767477,4.52055087432048e-05,0.000392153059040391,0.000188111262942839,0.0215749010837907,0.0245073818417835,0.00442459712496106,0.0114405768593891,0.000135232333333416,8.79011004303109e-06,9.52768159334357e-06,8.48729451773657e-09,9.33362230423442e-07,1.88176214699959e-07,0.00144133377050104,0.00168574468411127,8.79396328606323e-05,0.000401864929454886,0.00619707397433891,0.00231764283537066,0.00231611128702853,7.27175289177079e-05,0.000191511180010908,0.000222390832112048,0.0176613749662065,0.0157794458375518,0.00604640965542765,0.0117827610157973,0
0.189138961070876,0.120745702542781,0.11431593668728,0.0601548035036138,0.0266847850354138,0.0130807898386138,0.141868488788634,0.104975762711184,0.086932791689828,0.0167471686389581,0.0357057101116939,0.0145487118147081,0.0131332624284162,0.00363258691009276,0.000715397124801245,0.000171669962668626,0.0202194167167121,0.0109731539971863,0.0075355246972519,0.000279396263347632,0.104161105181949,0.0718650583988707,0.0699810639542586,0.0370044091852844,0.0158502352684212,0.00750366295879619,0.0720376988962354,0.0691523393118837,0.0514135868985854,0.0127646773388299,0.0713002046228029,0.0290554068243524,0.0261357230619311,0.00723300794827554,0.00142389789048748,0.000341917769184245,0.0402396455913694,0.0219379939987372,0.0150551051079206,0.000558462419893003,0.130662228106808,0.071936320973693,0.0669342003614,0.0475288583419809,0.0206689549862291,0.00650248330138263,0.0653815551934692,0.0896815010040272,0.0485461108393221,0.0115519932170274,2
0.236715662418995,0.213278231879714,0.187920163785226,0.0709415508602365,0.0152993164744206,0.0246911641813488,0.337615036821565,0.172215629336548,0.138955578798297,0.0224802787112265,0.0561699624823729,0.0456458886878926,0.0354905091389484,0.00505732199187557,0.000234782841180092,0.000612610662226438,0.114483618779642,0.0297524337921938,0.019366113604488,0.00050787159009086,0.194604623936051,0.175575714146068,0.145990804983267,0.0552843805055924,0.0116512743688791,0.0154517121140299,0.248947277710683,0.143915577958523,0.109197489214579,0.0176922256334937,0.111919950468037,0.0909043817278068,0.0706268551847097,0.0100646673314807,0.000467677515042676,0.00121919905911772,0.227893496225746,0.0592616513515817,0.0385772657567965,0.0010106905749031,0.175394470916978,0.167718506686393,0.118950633989972,0.0465697393715287,0.00807645341109461,0.0144403864769388,0.278482853817964,0.137923356501042,0.108858682268594,0.0155146091012393,2
0.0971490608973616,0.118579285100067,0.0423246583667272,0.0121123161767003,0.00333987577669357,0.00223406723473381,0.0482850787542585,0.093378490496425,0.0618188664541178,0.00969100727430871,0.00947621277905933,0.0141309028630277,0.00179993288679868,0.000146290037345514,1.11812345723105e-05,4.98220841143697e-06,0.00231527103509884,0.00875948587616569,0.00383915318978209,9.2827254096255e-05,0.0768799932557481,0.0930945950443309,0.0329806257186159,0.00930333848912658,0.0024452432889772,0.00174272202427394,0.0378331506098762,0.0708615872373156,0.0491552050335371,0.00771082705631076,0.0188656842816977,0.0281209703437897,0.00358229042372761,0.000292266193479504,2.22796337390902e-05,9.94835029585845e-06,0.00463508850502249,0.0174349301404646,0.00764152518964118,0.000186274311845157,0.110887655645753,0.13631040654681,0.0427410789104983,0.0146676550558646,0.00375724098340031,0.00276052388685262,0.0535980544355237,0.10705727788753,0.0677114820514174,0.00707725059449058,0
0.0148414808131952,0.00829758352532873,0.00215025481226772,0.00102393729775057,0.000637583274727514,0.000292324756518237,0.0322620080983334,0.0198638000014223,0.0100631885810292,0.00957385871509801,0.000221070282746906,6.83957184556138e-05,4.41577194241513e-06,1.03107122338851e-06,4.08554444906315e-07,8.49860874640711e-08,0.00104545895330892,0.000396456015287111,0.000101764223194854,9.19865843423447e-05,0.0109496482333772,0.0060289864194956,0.0014429742848723,0.000726067370138862,0.000369578078742384,0.0001570971977155,0.0248457298511301,0.0151964575807389,0.00559770165088797,0.00752219124458207,0.000440211666375888,0.000136902344745437,9.01629811493836e-06,2.07209016531869e-06,8.06362239397986e-07,1.69730870092143e-07,0.00208102569079521,0.000789035296388811,0.000202514700175568,0.000183185378312383,0.0167905675897636,0.00920912256870016,0.00138304258879072,0.00100247259627001,0.000241109419852964,0.00020654151931341,0.0208574411073681,0.0130437389860785,0.00755839486136014,0.00653813195541518,0
0.148738262394397,0.129698104272302,0.0812893997643794,0.0475092216292548,0.0287431888063073,0.0226736889175553,0.0800751111971491,0.0811650851214274,0.101506286301046,0.029877268011659,0.0222272991000256,0.0167674748634181,0.00664039640669729,0.00226275157045156,0.000830203464971233,0.000516264226778834,0.00642783571719353,0.00662083382892368,0.0103007085487394,0.000895408111165288,0.0750923298583498,0.0745366378501271,0.042597472680119,0.0259037159325025,0.016261830483642,0.0120251270219014,0.0493150988451431,0.0523972151868484,0.0612780791796817,0.0188241850139233,0.0442391103605445,0.0335050899557573,0.0132151270084334,0.0045085528136987,0.00165220441731321,0.00102777756757584,0.0128077177319835,0.0131754749686847,0.0205527304950874,0.00178357606295063,0.0835133683153049,0.0894632116865841,0.0603749552833994,0.0291674987858929,0.0202445079640791,0.0137836451070372,0.0523737659148959,0.0536819735936519,0.0754104797400076,0.019145064123793,2
0.176033625839453,0.163006049935622,0.14086015345326,0.054489772316245,0.0149075711847024,0.0184606581380095,0.142429412049137,0.120761851261816,0.129480076026783,0.0208996100057344,0.0311434981714815,0.0266092360034698,0.019941184357234,0.00295334239601346,0.000222885878919576,0.000340794987092314,0.0202692999597905,0.0146566747019106,0.0167911157261523,0.000437030928814728,0.143606431821046,0.132110231533039,0.107178368221027,0.0393468267209221,0.0105281307799444,0.0148129602584606,0.106987956057128,0.101679008306662,0.106282577470215,0.0169010568994015,0.0619754853259598,0.0530469037054106,0.0396827893505208,0.00590770754746897,0.00044399501675551,0.000679884906207088,0.0404538973179238,0.0291668057037898,0.0334716210618158,0.000871637117458474,0.156503622692861,0.109225159223738,0.104989879729178,0.0384164153294479,0.00965990454178976,0.0149741705427798,0.0925975478568971,0.0843152561807684,0.087929530204978,0.0144322394819973,2
0.0595281517118313,0.0742978278853459,0.0187237062068684,0.0199468710775432,0.00298355337047171,0.00361767483303812,0.0705679771113764,0.0489824790683611,0.0787955948332885,0.0136887231466888,0.00355610989674988,0.00554637419658676,0.000352161490627225,0.000391704176400691,8.85548095030058e-06,1.27492832722007e-05,0.00497811567382554,0.00241022511989524,0.00623937409793707,0.000188311186168341,0.0409481493571316,0.0578842449575051,0.0133784279772155,0.0145516762406736,0.0023875241714491,0.00283229126493856,0.0496567021314431,0.0397450067715516,0.0562657785492453,0.010528049159586,0.00708187910881987,0.0110386114215187,0.000700954884518386,0.00078762267146951,1.77119949043068e-05,2.57712725014837e-05,0.00993270192601977,0.00479722619053463,0.0124168868154125,0.000374732792420925,0.0612128041337877,0.0854156430172782,0.0187081931911166,0.0232856363779521,0.00357470411827814,0.00318300842177476,0.0619657954315249,0.0489059314054921,0.0615912090907195,0.0103651880397149,0
0.00403957711855649,0.00540027537203572,0.00103800001868384,0.00189769428126856,0.000747508228884629,0.00046657483413627,0.0127254821163948,0.0155786762256589,0.00709247630130031,0.0132527551925259,1.63929908740414e-05,2.86970355145865e-05,1.07066139593234e-06,3.54253298436841e-06,5.60598563695324e-07,2.17851448078278e-07,0.000161960536162754,0.000243523766446387,5.0280878621994e-05,0.000176242903046801,0.00308686969864143,0.00390625265750562,0.000742219551978609,0.00133199253617881,0.000480805293432806,0.000300216309573601,0.0104858543996789,0.012950471429529,0.0051408091732052,0.010978381515666,3.2628864340835e-05,5.77164679912821e-05,2.14071470710094e-06,7.12543068451367e-06,1.11636829134251e-06,4.34263292631815e-07,0.000323060304212596,0.000484976192278765,0.00010033005602628,0.000350993689699252,0.00439992254841849,0.00597405400590963,0.000847213870975531,0.00205851661333157,0.000379433738577403,0.000431047687998647,0.00747681007202492,0.0105309814655353,0.00787709251510242,0.00886122091374908,0
0.020652531586207,0.0491228132908007,0.0414554636861872,0.0298563560755247,0.0128679337726791,0.00808538566075739,0.0429095783736669,0.0442774579631607,0.0468930493954557,0.0089857011122062,0.000428627079401485,0.00241193550703808,0.00172601451985433,0.000894127903715262,0.00016639212834382,6.56490782108807e-05,0.0018350095309421,0.00196044367956613,0.00218950323155851,8.10031214026787e-05,0.00997067391702149,0.0224035366419337,0.0185737152915758,0.0138224535617016,0.00602737967961757,0.00397424346513661,0.0242595390504214,0.0244729640860766,0.0227370975267657,0.00718718812405473,0.000853005749942752,0.00481286691026559,0.00343590430305552,0.00178105288182971,0.000331142955882219,0.000130693596508985,0.00366685661826383,0.0039107514437127,0.00437749602087392,0.000161340929640326,0.0124466822801084,0.0268620888771608,0.0233569399651204,0.0161398505140937,0.00748321336515429,0.00453149516233791,0.0237018938225114,0.0230518365825994,0.024673549510955,0.0055808878001865,2
0.135484130614763,0.128962660254565,0.0773528042495756,0.0373644807033711,0.0105519082183304,0.0199647449694464,0.179993102736944,0.116030073539819,0.0783782142409991,0.013540621384993,0.018444496536046,0.0166774812875443,0.0060081714352186,0.00140310567934528,0.000111675333557817,0.000400258146898075,0.0324766771503764,0.0134699486495122,0.00617237545101902,0.000182454934148749,0.10017943913472,0.0793407588576897,0.0569265060374226,0.0242287368811446,0.00816895120346247,0.0158227776108811,0.139695890558378,0.0825997971242917,0.0578079803685488,0.00920947339000618,0.0367076897626544,0.0332228514719696,0.011961256818237,0.00279218887941298,0.000222457578595111,0.000796824540981374,0.0647111071673589,0.0268654756207609,0.0122844176581496,0.000364853220750987,0.0703991524895141,0.0850573429321905,0.0422768774723053,0.021677815998588,0.00579800744668094,0.0125122021745524,0.121380290341313,0.0815272226594372,0.0447518403188206,0.00723525283925588,2
0.0551639013243235,0.188527960961612,0.0891094493418848,0.0639125737728743,0.0108655810410239,0.0133000397383363,0.196015477915835,0.186129263298035,0.0883101641227439,0.0255858105956548,0.00305078497625108,0.035597352276788,0.00797148582194778,0.00410503095913633,0.000118601434540721,0.000177746174138608,0.038367148126196,0.0346675757108261,0.007822271111773,0.000653701342951202,0.0427912424419955,0.139715243829971,0.0700721751804722,0.0417823793398265,0.0073863765993491,0.0103566162295145,0.152238252268748,0.144731566200581,0.0701165326734699,0.0210510660067261,0.00607854955730795,0.070960781548881,0.0158716925389143,0.00816916868203369,0.000236047620529297,0.000353733911474365,0.0765973685537444,0.06913826519949,0.0155815176796756,0.00130505707284972,0.0498469762684116,0.168008997472054,0.0843438313191047,0.0483918551025904,0.00758333805682224,0.0118523428329376,0.179989869468147,0.15759024742693,0.0695164853197675,0.021117483646595,2
0.00727160335823777,0.0147373986445729,0.00724449792699108,0.00407313630587496,0.000991548796327765,0.00115551601181756,0.0186817521515092,0.0236461877631574,0.011967771086623,0.010292115068838,5.2261018758112e-05,0.000216579856084907,5.25797266368991e-05,1.62835609617683e-05,9.80952963074038e-07,1.31694791986336e-06,0.000345200219812258,0.000560332810227825,0.000143521543259226,0.000105490592971034,0.00525459504173266,0.0101773620988269,0.00521620556366055,0.00293921595803545,0.000703881829896287,0.000846188490500067,0.0132776069791987,0.0193865713379081,0.00835336525576122,0.00823653670956227,0.000104872994346317,0.000432673969236725,0.000104799129625105,3.27919437941922e-05,1.95833735844238e-06,2.64555783270926e-06,0.000692475611326814,0.00111664163989265,0.000286023536002802,0.000210888414465793,0.0077690624266477,0.0163691577762317,0.00801734095299133,0.00455733237933415,0.000657837421624473,0.00130325142211284,0.0189634482305803,0.0226042705728595,0.0133601385901115,0.00640333599912226,0
0.0131959735319623,0.0729372463614782,0.016288383437963,0.0170367360045301,0.0245895060773502,0.0216549559635589,0.040980115974513,0.0455938969940217,0.0494686828539173,0.0155014049007328,0.000173505343936665,0.00530622760705613,0.000266588841936241,0.000291707089640297,0.000606861498650967,0.000470584749279977,0.00168449528738423,0.0020687207323927,0.00243760955373397,0.000241464523373286,0.00499592423887054,0.0248314604382389,0.00630448285088447,0.00666428893734919,0.00982897807329005,0.00856329531313068,0.0208364755318185,0.023508004201303,0.0174727507691925,0.0108981278055156,0.000346769938797673,0.0105992333754291,0.000530546634184233,0.000580492970947138,0.00120838985741717,0.000937131356404081,0.00335542771173922,0.00413709704403973,0.00487257137822647,0.000480535776258889,0.0054402951632723,0.0343116775963672,0.00837734724037897,0.00907653237691594,0.0135614477367439,0.0117266547954078,0.0254221514824781,0.020086450878777,0.0228501745739122,0.00965972633248312,2
0.154526033769816,0.118041305281215,0.117741112940917,0.0280739562097933,0.0242819632176816,0.0225504932771377,0.148833633394664,0.0930243436054163,0.132266681230797,0.0183768204516102,0.0237153916213133,0.0138057586230779,0.0139236142025698,0.00079207136215766,0.000592454816309785,0.000510856601010457,0.0221376184400466,0.00860588946437213,0.0175682830527746,0.000338679576815678,0.11186001280088,0.101245080642055,0.0968958780627672,0.0228177066967165,0.0168084111504368,0.0182940767179458,0.115786222786958,0.0741367803198348,0.106537939103068,0.0149271790675012,0.0474728322288522,0.0276696741157005,0.0277168835395612,0.00157625802254702,0.00117902734233791,0.00101674172638249,0.0441775139980371,0.0172162792662813,0.0349748553678962,0.000674646314852184,0.0829544747772296,0.090918794109784,0.0978166458577274,0.0245754491222117,0.0138832777612019,0.010317702117466,0.106116310180711,0.0587897987714296,0.135410802899381,0.0119799228129454,2
0.181190733774968,0.0963173075839558,0.114548749003345,0.0432726042079416,0.0146166868414177,0.0175448626772913,0.207938569699913,0.102911970864113,0.0905975976847726,0.0252018186740012,0.0328017704503276,0.00927776387346465,0.0131723370031459,0.00188182056868066,0.000214583008200526,0.000309163483782617,0.0433461602451732,0.0106389666676715,0.00824171472607756,0.000638114236811744,0.130343939480222,0.0763171152669467,0.0949763436453139,0.0291834950101106,0.00995980107810752,0.0139707354308179,0.146990348588569,0.0779175039545041,0.0767072671968668,0.0203112332626534,0.0654660417342351,0.0185083954370507,0.0262278672884186,0.00374486932446287,0.000427157624885502,0.00061540122624903,0.0863673792832244,0.0211763829585784,0.0164083530975749,0.00127004946221547,0.182821572231146,0.110212932086672,0.104801712313738,0.0295513983995978,0.012589297024899,0.00977065389449033,0.151689648145746,0.0827142191627704,0.101759260295966,0.0225907498722809,2
0.024799211235865,0.0153887031534642,0.026602582960777,0.00476812058705376,0.00164628981927293,0.00419323601971568,0.0215208149206505,0.0208580152879415,0.030412441840924,0.00892744132992552,0.000616044503493829,0.000237417584377197,0.000710212109249533,2.25181869386128e-05,2.68662230789102e-06,1.76679165787416e-05,0.000461202677591377,0.000434516600616829,0.000927000240735832,7.9711211129226e-05,0.0174063205512372,0.0107278713103809,0.018790811247144,0.00351584683756468,0.00127695324130725,0.00302381885864125,0.0170269683932988,0.0166695091712353,0.0217616033263342,0.00684882202800338,0.0012279056332832,0.000473029125258783,0.00141427850572376,4.51404605058528e-05,5.37492975919631e-06,3.51607411481318e-05,0.00092203727944041,0.000867343620430624,0.00184723910935647,0.000159009508925067,0.0278012895003463,0.017130357554689,0.0297932059626752,0.00537773100386926,0.00167443771860527,0.00474852451000856,0.0251001050972143,0.0138269994922365,0.0346520739214198,0.00476026682757052,0
0.00176964400821399,0.00085617373485207,0.00177118218407651,0.000384842334654246,0.00073580378550567,0.000257333564488589,0.00689984343375367,0.0165694767903092,0.00186491822372985,0.00863423480358774,3.12181512587559e-06,7.31050823439023e-07,3.14471667468892e-06,1.48366918732187e-07,5.43952739158761e-07,6.63720373051002e-08,4.77477348439128e-05,0.000274153932015473,3.47523000215074e-06,7.49027818729473e-05,0.00123314764921732,0.000588135793700568,0.00126051109909006,0.000258658154012359,0.000398409188057127,0.000173760722543362,0.00536661146183903,0.0138405547022934,0.00129340851680504,0.00660669248862424,6.23498471372751e-06,1.46039321366869e-06,6.26530666895231e-06,2.95521075134087e-07,1.07566317622267e-06,1.3224493494082e-07,9.51129306259752e-05,0.000547264111149347,6.93558708531728e-06,0.000149067705961032,0.00153745124496694,0.000948526548105792,0.00170907408207421,0.000341489468132559,0.000234617751102236,0.000282617922199715,0.00471705715209471,0.00781051765876215,0.00203089203201257,0.00461532395652189,0
0.100861853163597,0.134845380023768,0.0427408057934318,0.0136525468079944,0.0170103818567723,0.0230868079783848,0.187050576614474,0.0861400505845704,0.102051041620866,0.0220321402778853,0.0102076529246104,0.0182629210513554,0.00183556750251394,0.000187111947615341,0.000290783861596442,0.000535516842046621,0.0351275725734849,0.00744209132541775,0.0104638190372488,0.000487771496388144,0.0694951481251293,0.104531480894361,0.0320957921610762,0.0104578545797001,0.0118403707217799,0.017470251831771,0.136766902825351,0.0640860992455885,0.0773224694165999,0.0169186515791492,0.0203291711750006,0.036354775916098,0.00365301943204071,0.000372567075932064,0.000578647215682685,0.00106583092517749,0.0699398356759241,0.0148249443924412,0.0208259096468119,0.000970724865365869,0.0595661883024,0.0969107419359297,0.0303571349820213,0.00914535326981317,0.0102946730958454,0.0125123788668397,0.145654991913475,0.0583045862048826,0.0906966681673801,0.0175456668312754,2
0.110127860633618,0.241888806738656,0.131892753406645,0.10042674550598,0.0213645607413573,0.0200512754089154,0.204702223114311,0.215252919021198,0.16610440055014,0.0531790274109563,0.0121890157090373,0.0586939252816963,0.0174542246698881,0.0101209787581098,0.000457776077032846,0.000403711050935935,0.0421036382170337,0.0465588541386771,0.0272684990353542,0.00283647342445812,0.0902795460463729,0.177733832198497,0.0987824108362029,0.0662445058009222,0.0148427484093582,0.0158258892526343,0.171727983628563,0.148104475565134,0.109550562429436,0.0368276398274311,0.0242560435090446,0.116910637646201,0.0347626473970522,0.0201558675063188,0.000911931651708427,0.000803732885223881,0.0837956483355027,0.0926598570252713,0.0547216061988889,0.00565029817342853,0.0643067862813586,0.185195055570799,0.0976439359326583,0.0580996827931808,0.0148261867092344,0.0125099296194277,0.206944229785286,0.155349881965718,0.0827484375101528,0.0413364096824972,2
0.0628715910993729,0.0977692558239581,0.0269781048590299,0.0255213958046839,0.00520877185339998,0.00904755480534148,0.084618511061974,0.101204071696349,0.191984009785986,0.0208296799775323,0.00396092375500783,0.00944050503211544,0.000710319035512536,0.00064381092487408,2.66486120314496e-05,8.13542579635173e-05,0.00711149093390677,0.0102510458067,0.036621093468474,0.000431329462319805,0.0480819088140213,0.0721848646106516,0.0171186073497086,0.016263210248943,0.00343259129122992,0.00646912247761594,0.0647647043074548,0.073763733623631,0.130849707273458,0.015929816148625,0.00789369251749599,0.0189520386452338,0.00143458424656332,0.00129190841188793,5.36411954278578e-05,0.000162801460310899,0.0142360127157503,0.0204410419560728,0.0732956646967396,0.000863007847132732,0.0692619002675697,0.112670689575731,0.0267793442477514,0.0241461558480351,0.005231503381063,0.00911976445005759,0.0878389127661308,0.105084588591414,0.159109354644855,0.0218789740202257,0
0.00763545069083481,0.0182253731749037,0.00658697382491838,0.0127463072662789,0.00449724628401284,0.00336427836382591,0.0198328342269203,0.0260809253629523,0.0141268896830971,0.00815148010225716,5.79665812704533e-05,0.000331605594421997,4.35534934662552e-05,0.000162214360932704,2.00858769208594e-05,1.13415846495564e-05,0.000395295616477817,0.000683316002587541,0.000199706121092295,6.65637754534835e-05,0.00600612894105074,0.00787465530610692,0.00233784298336537,0.00345905310755441,0.00157079137501319,0.00117395671044035,0.0160624538781078,0.0208389774521535,0.0102342790589254,0.00656188849723889,0.000115960972328998,0.000662084612477292,8.67209463949391e-05,0.000323843734670948,4.02105898866532e-05,2.26032206387437e-05,0.000786568292829303,0.00136011327247867,0.000398254160969534,0.000132677385314946,0.00563450993701211,0.006106497692681,0.00231416301663496,0.00427244535439277,0.00158759584155253,0.00114114076977299,0.0121307790756952,0.017840513263375,0.0148464169906366,0.00463339957567585,0
0.0863141339647777,0.0794414398453347,0.122042875475551,0.0313298111268171,0.0191004490633616,0.023821398258151,0.129271205280953,0.0766247482263541,0.121896121684439,0.0241902150033144,0.00746058320157733,0.0063316646254447,0.0149564182689775,0.000986471114812234,0.000366638339103658,0.000566866460329981,0.0166373737815061,0.00589612895952295,0.0149288762826427,0.000587963577405789,0.0572989606781154,0.0666959769877172,0.0918286414441581,0.0259794388765842,0.0153544396449501,0.0144929741953626,0.0904042798592496,0.0589407507429158,0.0972976567449673,0.0187470926371306,0.0148733882409696,0.01261053681835,0.0297759572767159,0.00196307258775992,0.000729579009776826,0.00113146338868436,0.0332642320727484,0.0117379375892386,0.0297120753468887,0.00117018334542049,0.0453246176608297,0.0437694134830222,0.0864218562654676,0.0274420464129536,0.0139351287068446,0.0130827320434717,0.0668693850632553,0.0524721579158446,0.0838550346410423,0.0151520880145423,2
0.162144911727431,0.101536830397384,0.116975625212001,0.0513566541219661,0.0191426524688069,0.0306840778093343,0.174886576117588,0.0897090758976638,0.0547363534343118,0.0393667466848927,0.0263249196642146,0.0103037979550485,0.0136843646811813,0.00265041084780359,0.000366232072647015,0.000945892016832634,0.0307340924794973,0.00804575626478588,0.00299230978102731,0.00154741298371261,0.124968465487268,0.0798211716847973,0.0956485205222713,0.0329579329662366,0.0155617707526548,0.0243177075077916,0.150102172017421,0.0721502690035927,0.0418518962059542,0.027623084554259,0.0524842585864037,0.0205618225812687,0.0272990757222304,0.00527466304237738,0.000730827313394865,0.00188266610774875,0.0611655208606101,0.0160532437077951,0.00597246107894992,0.00308936954011181,0.0981977290832166,0.0556906935408512,0.0644735645921742,0.0226911170347308,0.0144469294893848,0.0272014915708057,0.133097225816009,0.0571300619159485,0.0375917537256704,0.0317261678655077,2
0.0580362154125725,0.0449373048965009,0.0346857831961618,0.0267707695570848,0.0110322746869486,0.0143204659010002,0.0843256237802338,0.0757606175426518,0.111964475954346,0.0306782270308112,0.00336464970971601,0.00200950345701195,0.00118519479783515,0.00072008739897385,0.000121016445726464,0.000204816058840407,0.00704925785063825,0.00569511415248896,0.0125718642064835,0.000933604865752744,0.040717470163093,0.0329622078120693,0.0231715392321958,0.0134107234434412,0.0077383829008808,0.0111423543812921,0.0569575068031901,0.0503916185245418,0.0651576032085124,0.0222532760132742,0.00671602645723929,0.00401879294238095,0.00238234065860163,0.00143315593223478,0.000242122359875606,0.000408866089403507,0.0141248175800045,0.0114062969782234,0.0250450487548722,0.00187008960737523,0.0413388852141567,0.052099819326087,0.0341165104915506,0.0170837444878449,0.00933363303972641,0.0135793807604875,0.0744903096602523,0.0670428290305558,0.0660616234405902,0.0306204682125009,0
0.0114800605911818,0.00298890537539834,0.00226990648499992,0.0185032800511022,0.00101310168644953,0.00112688401439028,0.0178769410199757,0.0315954028855552,0.00622990775705095,0.0212764104517521,0.000132454054607571,8.91617088250685e-06,5.14209813470296e-06,0.000343960279984115,1.02439949133806e-06,1.26651974822049e-06,0.000319373478536791,0.00100320621158378,3.79646930378492e-05,0.000454462427656492,0.00860930005121265,0.00205272699138354,0.00162466509113928,0.0128792113529876,0.000743440303041907,0.000833697774546345,0.0145526954985214,0.0253394556757373,0.00442043303274751,0.0164793379475493,0.00026357605538551,1.78046905817245e-05,1.02678858790272e-05,0.000684607536613339,2.04426500407078e-06,2.52947207636276e-06,0.000637358886729315,0.00199643880233624,7.65864458938797e-05,0.000904856614529295,0.00770766878090732,0.00330772737103311,0.00235350429621231,0.0111423442615059,0.00068378669768716,0.00123582941275112,0.0127554141428107,0.0278778048449641,0.0069206920133129,0.0141187337840157,0
0.0987449561221647,0.132761516714098,0.104745781140166,0.0489326418623756,0.0272675476746826,0.029438576629679,0.167676309309267,0.136574481686067,0.120097254834268,0.0279758743481771,0.0097963189337736,0.0176953783686286,0.0110243631307738,0.00240553863240288,0.000746833063383882,0.000870910948227842,0.0282472523982528,0.0187460813755756,0.0144803155347604,0.0007854058500648,0.0667263753523398,0.103942049031096,0.0805856847642027,0.0371942570011035,0.0179446265321659,0.0212636234818071,0.127195518637807,0.104822852409825,0.0833195872416069,0.0209272956249026,0.0194934630811,0.0352317919252211,0.0219407678222382,0.00478785070938276,0.00148656831555821,0.00173314045260224,0.0562200900464418,0.0373049062654169,0.028830190916417,0.00156409515792646,0.0477912341619144,0.117791301287289,0.0852368351399089,0.0336025036598038,0.016169425987608,0.020135561929169,0.13783752608183,0.118051715847654,0.101286247034646,0.0190587714933866,2
0.181196867655083,0.130235793643327,0.143267232181674,0.0380530601628629,0.0115249665589192,0.0224290675190709,0.220328783580368,0.136213008264814,0.137381611875514,0.0414258735679165,0.0329959533726787,0.0170302432117751,0.0206278251817748,0.00145530903451739,0.000133011295098002,0.000505420798056594,0.0487803874783183,0.0186469280018432,0.0188614719163507,0.00172389304737987,0.154018628581348,0.106906283074185,0.114704895957021,0.0264233086073601,0.00876947139164726,0.0171299945138525,0.181205813135383,0.109018669483487,0.109273355366974,0.0298791394605377,0.0656617846548398,0.0339064533517731,0.0410501618990911,0.00289606530924537,0.000265153554132889,0.00100595651405502,0.0970812127324827,0.0371072758190926,0.0376406802470629,0.00343129775656259,0.170266704157307,0.107271593795287,0.107717930681689,0.0244755787925827,0.00854608555801107,0.0178855178349042,0.198102176604812,0.105386580462864,0.117198490997658,0.0315665141160772,2
0.10384634022886,0.041660154351344,0.0355240329806205,0.0116284638180203,0.00177271484308539,0.00512720850271444,0.0785795518516743,0.0570989629107573,0.0394675152991212,0.0136028411969779,0.0108382092007936,0.00174414158908653,0.00126260277946491,0.000135570723504727,3.1582203383317e-06,2.6417380605361e-05,0.00617906010689141,0.00327606997651457,0.00152765004087608,0.000185709054726366,0.0822208429791787,0.0305307985423971,0.0251405627359743,0.00782775906211225,0.00144995418277425,0.00417175297402535,0.0553525215371134,0.0459042641338482,0.0326245974328552,0.0106488709365724,0.0215680787659497,0.00347089726576321,0.00251820010731836,0.000270106500850986,6.27343582246428e-06,5.25734187850132e-05,0.0123227935468017,0.00651991045408503,0.00307762032647804,0.000369779956277107,0.0963140997378149,0.0469191010684379,0.0382060731235264,0.0122846384560407,0.00192662275471511,0.0062172636143569,0.0857316250800075,0.0672450993740747,0.0441564314545975,0.0100734599542115,2
0.0121941294283776,0.00250830647550113,0.00187052681114305,0.000585821595578761,0.000678854942622463,0.000479301713443292,0.0166840045046094,0.0243562005992056,0.00357372994255586,0.00848504375921343,0.000149216168564827,6.31769160455475e-06,3.51019096313668e-06,3.43855056511715e-07,4.62421182171516e-07,2.24836442848177e-07,0.000279754717525401,0.00059608745412453,1.27992599835129e-05,7.23454269109889e-05,0.0090229091163045,0.00178644538739099,0.0013724047101172,0.000395750460199491,0.000399909220194597,0.00034412454778318,0.013204532707954,0.0199504764960423,0.00256539885855687,0.00670925373939743,0.000297162728079467,1.25773002687739e-05,6.98520313879607e-06,6.85167748733544e-07,9.20953098156044e-07,4.53440471621185e-07,0.000556711899922132,0.0011863315216257,2.55060413315577e-05,0.000143975903568459,0.0118268972503519,0.0027739121553887,0.00192213482227743,0.000581888389119774,0.00021475958075748,0.000531797328929608,0.00900021030773362,0.0132186791065896,0.0039505264885248,0.00565084332405856,0
0.00552452238418338,0.000137021503153656,0.000510424132875626,0.000326933771342948,0.000550869558860683,0.000232269730282398,0.0173131266990463,0.02497054295635,0.000305378339085046,0.00782750360025958,3.06736752441043e-05,1.88666665413687e-08,2.61410648193805e-07,1.07421454848076e-07,3.04958791670184e-07,5.4207235097987e-08,0.000301073243331533,0.000626508133671889,9.37229166398009e-08,6.14190713453698e-05,0.00412209338851184,9.60580579514233e-05,0.000262277960453872,0.000123829530793626,0.000244848366957423,7.64174401871602e-05,0.0136011084728642,0.020426942714453,0.000171345781083069,0.0061428549564266,6.10402233700403e-05,3.75459854787598e-08,5.19124816325177e-07,2.13770006992616e-07,6.05799133538068e-07,1.07610559785489e-07,0.000599290487661572,0.00124689923556992,1.86284919853091e-07,0.000122378720413495,0.0031274115549924,0.000151460739490159,0.000143353340649948,6.69448207616005e-05,0.000163123761123541,4.14489967223388e-05,0.0122697701074726,0.0205906293774189,0.000222663046452505,0.00488519723011834,0
0.00326009774561138,0.000326017027162553,0.000725488205254068,0.000328760388879063,0.000797465616438511,0.0002286098829303,0.0173530703191224,0.0202960655160714,0.000228192810291501,0.00854295577664184,1.06753466803949e-05,1.06813586235161e-07,5.27853035468254e-07,1.08598096631089e-07,6.39011967582572e-07,5.25147071310086e-08,0.000302089357551077,0.00041352723367093,5.23128767968511e-08,7.2731439230987e-05,0.00238435666928149,0.000114759419514076,0.000439332165426411,0.000133656846142688,0.000454630374499964,5.17854409385698e-05,0.0137681868970224,0.0167223967193473,4.82921329350456e-05,0.00697616361850815,2.12498496965767e-05,2.1145846911561e-07,1.05147195963379e-06,2.15050947995876e-07,1.27132469282312e-06,1.04250187816766e-07,0.000601699222007629,0.000823376452225467,1.03851140073256e-07,0.000145341816083123,0.00161858859345031,6.65214130039722e-05,0.000233981666216467,6.68532036672234e-05,0.000283320067438216,3.7958162844092e-05,0.0138851067021878,0.0162325875300017,3.57722655651114e-05,0.00465924569135625,0
0.0237462638696502,2.33673736688251e-05,0.000784649625299636,0.000230712596826591,0.000475505767913194,0.000234484020489966,0.0143365178386488,0.0210693448420589,0.000328499703669097,0.00870378578107908,0.000566582785924831,5.40387679273324e-10,6.1864171525927e-07,5.34951738830242e-08,2.27195906935137e-07,5.52395706556243e-08,0.000206008970856097,0.000445940043300239,1.08454326823325e-07,7.60334670154618e-05,0.0162170606496302,1.73125541861151e-05,0.000463073557795249,6.41344566756406e-05,0.000190236630447437,8.51358266383228e-05,0.0113069625509673,0.0170871449442221,0.000120329859656429,0.00719131269540928,0.00112762678467302,1.0837198752342e-09,1.23008646213219e-06,1.06172623935747e-07,4.47079524940465e-07,1.09658657383188e-07,0.000410466415714769,0.00088758464367203,2.15823957543928e-07,0.000151374992419917,0.0132042355020237,2.75269030721882e-05,0.000221194954709381,3.75464419119691e-05,0.000134482552760301,5.52321285737915e-05,0.00590166326561988,0.0127734191084995,6.96764487066624e-05,0.00519316561389833,0
0.0082554175035157,1.60298357160803e-06,0.000678493883864533,0.00032845146273793,0.000758152691330725,1.2034875800908e-05,0.0139291274949088,0.0244514339140827,2.67366304503255e-05,0.00762248645673217,6.84513478094169e-05,2.51857296133869e-12,4.62667168285734e-07,1.08385131303057e-07,5.77670423558877e-07,1.44323366254104e-10,0.000194995309933459,0.000600511114012732,7.00257520751831e-10,5.83525353559833e-05,0.00614144938761056,1.12204980905108e-06,0.000337958482979358,0.000134441106615242,0.000452918904899325,8.42083659064523e-06,0.0112060013695532,0.0198346665973466,1.56732412205579e-05,0.0062542517669772,0.000136258947849719,5.07550659026617e-12,9.20420215381994e-07,2.15723568172383e-07,1.14933732941132e-06,2.88434291904478e-10,0.000388040305719188,0.00119534533465154,1.41155910653426e-09,0.000116146486166591,0.00540258060044702,1.77799818604814e-06,0.00019840696042499,6.62961394919713e-05,0.000230885777038194,1.35326909927857e-05,0.0122464410228695,0.0159315913390637,2.01975969753358e-05,0.0054781256157789,0
0.00232362792791569,8.19916629795018e-08,0.000455657457155788,0.000396148154743569,0.000780048714236904,0.000326904055387313,0.0155154183420496,0.0216699646340304,0.000231376822006076,0.00732859477036466,5.41234440872952e-06,6.56279270889996e-15,2.08663982037882e-07,1.5771128436225e-07,6.11530691552986e-07,1.07399051661926e-07,0.000241915136451039,0.000469535538841418,5.38041818112735e-08,5.39777133516851e-05,0.00171874281915426,5.80046070528321e-08,0.00018245643959804,0.000131784405326925,0.000466314933160812,0.000122113938068583,0.0123751594226236,0.0175766407886,6.79589572393127e-05,0.00608139588076243,1.07821088839686e-05,1.32525906879202e-14,4.14064127356673e-07,3.13584143560509e-07,1.21579460444769e-06,2.13728298060101e-07,0.000481424805931159,0.000936698020802889,1.06795638701012e-07,0.000107415098761654,0.00121123083509604,9.09611530355263e-08,0.000128641004942797,9.80476353223118e-05,0.000257523837692056,6.68551887751883e-05,0.00967172129841126,0.0111758303943812,3.57577265845847e-05,0.00407682663445149,0
0.0346829097238874,0.000229099696548797,0.000683640669150244,0.000456166499451719,0.000641608909320099,2.04987665077643e-05,0.0112329649176266,0.0160676595442881,0.000320789580097791,0.0077487652335173,0.00120760133826653,5.27503975493441e-08,4.695970932369e-07,2.09131249127552e-07,4.13722785044158e-07,4.19190370722839e-10,0.000126738186320733,0.000259466335555603,1.03422100849438e-07,6.0192848086908e-05,0.0205127521359751,4.67570194852708e-05,0.000394552470905786,0.000182947544203519,0.000320283314605018,1.49411829418677e-05,0.00929766538423926,0.0133026411550021,0.000110197852496401,0.00663875692780435,0.00240442202818125,1.04686792807916e-07,9.34317631240184e-07,4.1174364971988e-07,8.18884834557163e-07,8.37273376461225e-10,0.000252257094395534,0.000516306980537844,2.04688066651662e-07,0.000119932887145288,0.0182430563974068,3.81633176276525e-05,0.000204441637983109,0.000126580768734364,0.000178799280616921,2.22275977141293e-05,0.00530726116986841,0.00908979963083902,7.05613979570716e-05,0.00472797020610364,0
0.170701944035628,0.256859992950072,0.134349640839683,0.0777898401367435,0.029817149127486,0.0235477035644977,0.282213360055446,0.105389662018943,0.198912951405472,0.040714468248457,0.0292655795041568,0.066282117055085,0.0181138409068953,0.00607054684432559,0.000892218929886494,0.000557018443717788,0.0797190208316909,0.0111610645901134,0.0397645177432425,0.00166587894317354,0.107405104752723,0.18177468422049,0.0854716937590273,0.0546578174832832,0.0203779226569968,0.0161800240148583,0.161500996806719,0.0735253033269319,0.13285980504261,0.0301013739513507,0.0582583843366663,0.131927505270525,0.0360728717133294,0.0120914357845662,0.00177681967726854,0.0011087162861045,0.158959633923031,0.0222119428296086,0.0791320558480154,0.00331521111949224,0.111032882250712,0.230569321588562,0.0818376225017592,0.0553175602401647,0.0212042405502336,0.0157359293911328,0.206522673178123,0.0780674242720925,0.149050441770752,0.0339706458747974,3
0.111478411768308,0.0824127384206125,0.118927304013021,0.0362228828504014,0.0212099348222753,0.0147002349141613,0.289577080300267,0.165325508145391,0.108728768693681,0.033295155982935,0.0124892075341433,0.00680834141640898,0.0141975540975635,0.0013081407711766,0.00044988303569032,0.000216321862211069,0.0841122563974183,0.0274000621558009,0.0118806854156257,0.00111365110630102,0.084089204851411,0.0720634797812205,0.0881854196617419,0.0287502267156787,0.0174173770565393,0.0117915709949395,0.238459202973507,0.136566269994279,0.0871343658179077,0.0273850507720413,0.0248537768139053,0.0135661525399523,0.0282684950028932,0.00261368464874838,0.00089749492630973,0.000431336617444882,0.167544999410261,0.0545953642499008,0.0236429722093588,0.00221664893371612,0.0921770436438678,0.0680417435471725,0.0785480397077417,0.0203979863313293,0.0172214633498486,0.0103571053706756,0.345273922038131,0.143822414925508,0.100756560826559,0.0299497686446257,3
0.0574540194734759,0.0182891801468386,0.0146110028868543,0.00742993143830778,0.00491687878775592,0.00455368885531138,0.125381454076786,0.0872989770546091,0.0213056905573143,0.0128514423012155,0.00329597280387068,0.000335363601437867,0.00021357098712905,5.54717402207881e-05,2.41953366863613e-05,2.07193774512648e-05,0.0157938436415547,0.00761941056009088,0.000456212694482299,0.000165702398062018,0.0411342108581899,0.0133995536459463,0.0106562712862529,0.00508327873606338,0.00347501559429328,0.00310773172351812,0.103807925400157,0.0628997842197124,0.0153925692091274,0.0105021671792631,0.00658021642793135,0.000668163113492413,0.000425960179716469,0.000110395864555161,4.82498058937966e-05,4.13501066415616e-05,0.0314353158385205,0.0152018423037246,0.000907838398316793,0.000330031789234634,0.062419776366011,0.0205462088625037,0.0162207322215722,0.00789098507114966,0.00549447637129437,0.00406647225318396,0.108084318204584,0.0613322542129751,0.0240510337775614,0.0130257874722488,0
0.00946019243501133,0.00107893810030471,0.0011321373243467,0.000439588811563166,0.000739747196032795,0.000501328441162885,0.0254427384919595,0.0241577076506667,0.00127936659320685,0.00787466704565536,8.99418564131707e-05,1.16807708950495e-06,1.28783212636239e-06,1.94092366817736e-07,5.48343208793855e-07,2.48130123101798e-07,0.000642433256838421,0.000586347987658367,1.64424232998127e-06,6.22931278951511e-05,0.00744904822347025,0.000770206888681075,0.000884919866288231,0.000269567153920101,0.000473377730550329,0.000308040250113985,0.0200419307994069,0.0193763981016108,0.000891164270377153,0.00648506484662415,0.000178980668429341,2.32628701154952e-06,2.56303902662455e-06,3.85958365216831e-07,1.09245937215253e-06,4.97058400568501e-07,0.00128654966171323,0.00116698533728094,3.27208481949445e-06,0.000123980586312216,0.00480408417003678,0.0011728497297448,0.000981452729472705,0.000369238873322322,0.000373529290274915,0.000415200771242844,0.0249857550340749,0.0109020366826572,0.00140421241042934,0.00447382332153903,0
0.0722189273941013,0.126352442273471,0.0470235547977457,0.0456914962202073,0.0396799623708946,0.0289561941042569,0.22535253703393,0.15387231272223,0.100719725308969,0.0329406745130486,0.00522813149366011,0.0160288123358572,0.00222072094981914,0.00209814359534921,0.00158225209539537,0.000840009794571703,0.0504081525058545,0.0237348904259396,0.010187544993326,0.0010861985119885,0.0440353397569722,0.0813969809213473,0.0288746161775639,0.0286815517132194,0.0290181652161214,0.0203584245264572,0.141279396851906,0.102630138834331,0.0653405063652821,0.0239987420746886,0.0104174149044742,0.0319130191313291,0.00442037230669973,0.00417527669803752,0.00314883423800858,0.00167420530708955,0.100935188564999,0.0472928717523153,0.0202809565089281,0.00216584654185958,0.0385321962474007,0.0929363625128064,0.0314981228582279,0.0260495450821139,0.0316963079799581,0.0243025546198754,0.108222888284624,0.0816642345458484,0.0786226272430977,0.019016631648423,3
0.177976031542442,0.065270694563237,0.0650410090474943,0.0457423801411682,0.0112276128160141,0.0243836686582569,0.309672397423073,0.159273040304801,0.0598789568867526,0.0315499150625961,0.0316522566989522,0.00424406066787043,0.00419025027926362,0.00207622251035605,0.000126391725944968,0.00059378766407429,0.0951414311659241,0.0251919592760862,0.00359129935579418,0.000991292300550145,0.13729396293573,0.0483022989221755,0.0474884974714096,0.0303503204139691,0.00925930041294885,0.02027116870239,0.254183540909682,0.134344767062264,0.0446422460119973,0.0251322882775803,0.06316892475805,0.00848283295320327,0.00839919756096649,0.00415820612669088,0.000251803848076895,0.00118537575342856,0.190562076689303,0.0504331738491658,0.00715866934609403,0.00198168298791392,0.117435910317222,0.0469834071812518,0.0534747985864049,0.0299388264069454,0.0112933456187514,0.0198057651147632,0.350628852434934,0.156552859603731,0.0523753076909429,0.0288951226776582,3
0.111309714614272,0.0187921346488777,0.0610929166726753,0.0372536673819225,0.00110521279966182,0.00804713189556751,0.0817644745715921,0.0810089968643187,0.0344020261268758,0.0110885697563825,0.0123832811839047,0.00035053644563564,0.00370761615070828,0.00136933847539126,1.20469804213302e-06,6.50318249531598e-05,0.00663876516648584,0.00653593887227956,0.00118939755148234,0.000122181823016609,0.0852953771702082,0.0132883770459527,0.0426985711348819,0.0233572902364461,0.000749846944197625,0.00603935538584852,0.0614259472531793,0.0667465698771314,0.0243859922993302,0.00869272652326464,0.0247108609896724,0.000701927203594544,0.00742142172031407,0.00275032237862903,2.40183068576034e-06,0.000129461116528995,0.0132909363052818,0.0130646820409275,0.00236693405227744,0.000244499950032015,0.124093834304474,0.0197773565599476,0.0620204054519264,0.0323400465704304,0.000774126655828389,0.00883535639478598,0.0929242635845609,0.0925810234306996,0.0201594468309363,0.0063022816515321,3
0.0164763623685204,0.00111981700863829,0.00310340658010756,0.00121088800392144,0.000712435164298621,0.000570717275321517,0.0130841968660721,0.0197063678063625,0.00291450561310139,0.00684497092132147,0.00027134075271303,1.2602882585149e-06,9.67894931240669e-06,1.45740902139005e-06,5.10050919706393e-07,3.20945575386732e-07,0.000170856508902347,0.000389326440051821,8.34975481860006e-06,4.7088753658118e-05,0.012683807301506,0.000806445438334724,0.00223287799578953,0.00087209558568428,0.000422049943312241,0.000415287882964437,0.010483650165341,0.0155960477997032,0.00204552078235501,0.00525065027792281,0.000541444297331494,2.50790509380538e-06,1.92613033152259e-05,2.91629094583926e-06,1.01400446664605e-06,6.4485496059616e-07,0.000341168126042492,0.000775691383567362,1.68022286754828e-05,9.36972705467317e-05,0.0172749506027606,0.00118957259242492,0.00335058232385315,0.00131154490320175,0.000200986514721263,0.000583624059103098,0.00763241508141917,0.013894934307901,0.00325692026353586,0.00455966873213915,0
0.0921095494883443,0.0707738968764507,0.080448630646097,0.0461635228423922,0.0360412688963735,0.0339550941433956,0.204941665984793,0.0968523845373753,0.0974586918231907,0.0264345610814308,0.00851708051309159,0.00503267586012962,0.00649687083806757,0.00213968312566236,0.0013039013151173,0.00115817437008965,0.0421475801129278,0.00939958967390407,0.00954580374874428,0.000702056549815161,0.0518099904172652,0.0463753743184708,0.0498779195992184,0.0316143442444651,0.0247168013169711,0.0223484776922812,0.108680382073005,0.0657909759031309,0.0628794738665569,0.0172063736736779,0.0169577952785332,0.0100164515735682,0.0129363686396757,0.00426004955600126,0.0025963466773717,0.00230532097179245,0.0839329627293611,0.0187328404698305,0.0189954591225699,0.00139724931125699,0.0527107606964917,0.0569884240024792,0.0426823659417347,0.0276974985397515,0.027790898249044,0.0211561113345889,0.0970879576873441,0.0463833191405901,0.0629849647315824,0.0131386242884683,3
0.13741710691297,0.062312909509527,0.0855309338228567,0.0290397876505227,0.0158564357157877,0.0257211553817008,0.172443649549327,0.103208387044974,0.0620469407550647,0.0285537885434898,0.0189734366881103,0.00389582458431058,0.00733246360931444,0.000842708706481143,0.000250245154396547,0.000664352760376029,0.0296844340857984,0.0107049639512416,0.00386710600404384,0.000819331026491561,0.102113360828271,0.0493183852234426,0.0693971746955717,0.0227717049211916,0.0111440065070512,0.0204546464751973,0.140559254533626,0.0805600455828658,0.0484886323499141,0.0202050519849688,0.037760965559911,0.00775923286723355,0.0146111869412038,0.00168180099911244,0.000500379034230311,0.00132260628155938,0.0592726538080198,0.0213019836729773,0.00769750234153133,0.0016304536327398,0.0726781862669154,0.05521202713136,0.0613427727056864,0.0148891945033892,0.011771411271877,0.0234743533592738,0.117030422890272,0.0862072855239842,0.0367653989534509,0.0243114150630303,3
0.126021682334145,0.0100726411472121,0.0614451303892576,0.0396795366754658,0.0022139220245581,0.00542407047647877,0.0816578213766353,0.0547037229676968,0.0466468993668577,0.0120304051447712,0.0159545863632778,0.000100465634594978,0.00379146126929555,0.00158143243491295,4.84497079967841e-06,2.95674994279219e-05,0.00667437365499011,0.00299980711306428,0.0021862328997239,0.000145251505875401,0.10129334247942,0.00722414244057325,0.0468339793171502,0.0303794268397135,0.0015298471197822,0.00264619106427052,0.0602052426039246,0.0429352260653231,0.0359944793332927,0.00928053942401921,0.0317559676285259,0.000201421017280123,0.0075479526144653,0.00314798000636904,9.722091111449e-06,5.8840010722293e-05,0.0133089540736414,0.0059773050941053,0.00435123468421051,0.00028924012469735,0.0913522987042428,0.0109863024417529,0.0529434469421818,0.0359604352066346,0.00218347163007427,0.00285846028446499,0.081056548347477,0.0471041832812604,0.0280635308025374,0.0101546590545312,3
0.0209208032812734,0.000763830495480883,0.00460733132070292,0.00275859132014242,0.00068006873323744,7.97203369382918e-05,0.0121484062404311,0.0212679883041094,0.00566962756040451,0.00806723496403323,0.000431188802615351,5.67990817282525e-07,2.13299159087042e-05,7.6012069858063e-06,4.64657009614915e-07,6.19793519759808e-09,0.000147482846167811,0.000452405170136084,3.14683711776122e-05,6.48486261931138e-05,0.0152940406664035,0.000536284156179855,0.00333543652322333,0.00199538227065852,0.000350605216733381,5.58569282483897e-05,0.00986707062470573,0.0168834592022036,0.00407708055249493,0.00682786865468997,0.000866712838505961,1.14858590795521e-06,4.24460593263768e-05,1.51682518093917e-05,9.18330875864637e-07,1.25222514412159e-08,0.000294328188640954,0.000902401534367801,6.34549216189965e-05,0.000129600335109706,0.0234336371546542,0.000835992556550994,0.00506930080923571,0.00301462002734047,0.00021886704975412,8.78569744959747e-05,0.00995594004969037,0.0110298757492871,0.00634083767227642,0.00549265591648186,0
0.0295969321588792,0.0312840222408717,0.0579241130958767,0.0345107941128378,0.0301669029415093,0.0225434588856129,0.0818278135278709,0.0419131391671266,0.0786074401766478,0.0169281044024428,0.000871288694314758,0.00098171902828014,0.00337206292708208,0.00119267316510941,0.000914583142438652,0.000510487470263446,0.00672595177902424,0.00176086036496356,0.00618328119846723,0.000285988851085449,0.0147611539019824,0.0139918370343214,0.03174970136519,0.020881218843494,0.016359218934992,0.0122010281839883,0.0513177965586929,0.0268178692844953,0.0341335258578433,0.0127495137139572,0.00174290740261501,0.00195549990607023,0.00671038207275449,0.00237770192367323,0.00182003962842503,0.00101614021152536,0.0133881065779342,0.00350871598402343,0.0123314413096776,0.000571099300370983,0.0147718308080029,0.0170206796163883,0.0298406228699365,0.0208944164610011,0.0168844258495627,0.0132500499653863,0.0432686176468046,0.018258768391705,0.0387961511400051,0.00851968306799757,3
0.190557744812593,0.156269289330455,0.132093100826065,0.0640245454125477,0.0315611350410838,0.0483477355881282,0.452949605050935,0.243807256747608,0.105463154909327,0.0783038384437189,0.0364819834810155,0.0245190945866433,0.0175249218876927,0.00411819069253087,0.000999567466724182,0.00234895757249379,0.206123406203909,0.0596510973055864,0.0111212323703681,0.0061620054761806,0.1460776996967,0.123213596456135,0.100430562891028,0.049820025395089,0.0255023509892876,0.0382080522064485,0.341213928124997,0.187882023295738,0.0880843342509604,0.0644521066771927,0.0726107497210725,0.0488163326842866,0.0348858632545371,0.00819669072959121,0.00199065385615187,0.00467442515141142,0.410250494719065,0.118784351401853,0.0221880796284657,0.0122626714280194,0.140927255481364,0.109855064817981,0.0890465804957206,0.0420317756360089,0.0212534389306858,0.0334334658630951,0.28225766360629,0.183246056175882,0.0845129350045695,0.0704489990586986,3
0.138080316141545,0.0384038803093064,0.0894632799977778,0.05851516423626,0.00769922868428395,0.0111132945516553,0.146390040865299,0.0857713935329609,0.0850681726655189,0.0203467527351914,0.0191460966483527,0.00147449542757925,0.00804076992032461,0.00344122859407097,5.84915871924138e-05,0.000122719067417557,0.0214034030469931,0.00728453151260609,0.00726477344946157,0.000415802985556086,0.115863304430215,0.0279855275591218,0.0662760133186134,0.0419241145917546,0.00439586343141354,0.00754513661538655,0.0835566800771055,0.0705659594364022,0.0666586709683249,0.0161438304335191,0.0381164310499914,0.00294197890538746,0.0160041314918563,0.00684803900435046,0.000117460646267455,0.000245606971664321,0.0427263467671195,0.0146046818188258,0.0144650191274107,0.000827669756763481,0.110291881111241,0.0397004988704391,0.0830481188759087,0.0482138455175036,0.00598852112122811,0.0100413382947388,0.110250202985834,0.0748422108959937,0.0622436776014198,0.015262831298032,3
0.0392205967001373,0.00449282467236845,0.0106012994954334,0.00479900733621918,0.000787556460379455,0.000689078324138102,0.010194397536716,0.0274438476093119,0.0140540283441955,0.00714924757431982,0.00153844567499174,1.98236989910322e-05,0.000110520166392277,2.2600274817823e-05,6.22761093908834e-07,4.64002436103601e-07,0.000103148187422708,0.000753039412122132,0.00019836571968327,5.13240741718808e-05,0.0275811137582716,0.00325457216844837,0.00774352232324917,0.0034124594886097,0.000510111439502199,0.000491635313623227,0.00789782918225149,0.0216231830091442,0.00996457407117255,0.00585469487023439,0.00306895813364073,3.99100532605848e-05,0.000222344083448869,4.55155443690478e-05,1.23956786756108e-06,9.36510693852491e-07,0.000206540351328457,0.00150242622197117,0.000394860301304891,0.00010216974503316,0.0435845546164631,0.00502271490492367,0.0118541792839367,0.00536963856450506,0.000237659976068286,0.000770398863177083,0.00694943596996735,0.025777196568669,0.0158086230231159,0.00457959445153862,0
0.00447753014563425,0.000237662582051427,0.000931768496365428,0.000410940974109419,0.00179542452758385,0.00109624653687029,0.00988027621872709,0.0155688590510966,0.00083600802731552,0.00871093615275183,2.00814414382473e-05,5.57543097272915e-08,8.68806823835411e-07,1.67800101719221e-07,3.21615123149045e-06,1.19948110299608e-06,9.79251597494329e-05,0.000242814088182316,6.98981739023142e-07,7.62265548058827e-05,0.00346545307767391,0.000172119367923462,0.00064593588128726,0.000228417764872702,0.000545135895308231,0.000227172022900825,0.00786507941746124,0.0127854634243915,0.000579760714610764,0.00695070231110861,4.00185980803873e-05,1.11957482837763e-07,1.73247989309834e-06,3.34747225754753e-07,6.4134026538323e-06,2.3890324729064e-06,0.000195052073943034,0.000483967267140955,1.39435961882888e-06,0.000151712154043007,0.00311012056945287,0.000262908357759066,0.00073829482488106,0.000267773607417158,0.000497070271477583,0.000237408022859081,0.00636402550842986,0.0104139312352401,0.000931696033846867,0.00688888046121244,3
0.152429582403085,0.16389610022656,0.122017056379933,0.0720898761259831,0.0369968644820307,0.0467406949533054,0.290268299061583,0.15570323202335,0.127692177262107,0.0740043860838222,0.023256935998881,0.0269328032066508,0.014939923689905,0.00522230658052782,0.00137384633605564,0.0021882961751561,0.0844609785053835,0.024259019507484,0.016364894174294,0.00549794386464524,0.110725683877711,0.128980381705898,0.0997910813808188,0.0551651658707256,0.0310767580353244,0.0360961958512613,0.232030726181733,0.124363176253393,0.0967110900816271,0.0548781482759539,0.0463753078568491,0.0536597384679994,0.0297526446183987,0.0103930321192802,0.00273571446615133,0.00436204576693635,0.168286546519768,0.0483810123263571,0.0325881852304524,0.0109470984414967,0.0851887360168501,0.116406330417447,0.0981230864588783,0.0668228377229474,0.0371311539107111,0.0422246059115335,0.199355696200404,0.11968693302233,0.104379780568345,0.0564920623232088,3
0.298528718591618,0.0721420469230666,0.145696795926544,0.0839205163074319,0.0137965683904768,0.0298438079581191,0.241140673752922,0.191298186758179,0.125314554863682,0.0255212814730203,0.089304002531256,0.00515806010143297,0.0213342219331414,0.00706851447775212,0.00019002511314917,0.000887344996092081,0.058138104388698,0.0365384879054055,0.0157198261279114,0.000649157921951808,0.240208786176329,0.0560667961473683,0.122104250207021,0.0694407586200359,0.0107747700811716,0.0210606822174705,0.190440748205387,0.162638969353264,0.10353948271626,0.0204666544339485,0.177976287858644,0.0103367386619096,0.0424550988232724,0.0140757096330088,0.000379407170229488,0.00177350599482431,0.11599304355748,0.0729507542241195,0.0313449165703558,0.00129724533678459,0.290156425802194,0.067640935698016,0.149204163946297,0.0853417422008048,0.0138691396714778,0.0298096756943999,0.251586810154901,0.212870940199499,0.112210329787705,0.0281694989485419,3
0.0719125177853202,0.00821995152044361,0.0410603275040795,0.0262319112944328,0.00153001092181546,0.00120822435086805,0.0463265503767529,0.0625617522154504,0.0246193693325652,0.00796925799841049,0.00515798055485952,6.76607755005693e-05,0.00167518245291118,0.0006780394360194,2.34907664052603e-06,1.44136371044686e-06,0.00214943291061477,0.00391038114988041,0.000600583101274687,6.38171857728237e-05,0.0578558342255936,0.00594283583224026,0.0305699136116901,0.0192133677557283,0.00113461034756646,0.000863282851244852,0.0322657448557094,0.0439545165898322,0.0182766780714322,0.00565202604808942,0.0103036006080339,0.000134887194958647,0.00335271792381631,0.00136276198506995,4.67823569596936e-06,2.89394430468974e-06,0.00428461587240289,0.0078046931551639,0.0012036914823159,0.000126993702309377,0.0743155304520049,0.00930167901901214,0.0468282403735515,0.030048997187196,0.00148174552083714,0.00138167970015279,0.0508720411187507,0.0641007930453396,0.0286735114502824,0.00465556898823458,0
0.0403252161992378,0.000544223240678478,0.0128376137327404,0.0186131220578464,0.0126552786991137,0.0147435942359879,0.0153826461426784,0.0192026176691523,0.00841757638901796,0.00690050906332354,0.00163263824077133,2.97667252896692e-07,0.000165597065985014,0.000348184492331823,0.000160278848686681,0.000217315399947116,0.000237750224136198,0.000367816447139884,7.08629423192174e-05,4.78225539131785e-05,0.0330290920171153,0.000372538935742687,0.00507388839459856,0.00607077655943533,0.0042657524170265,0.00455022351223692,0.0100442315744359,0.0153039870541672,0.0027865178278721,0.00509606260730246,0.00325058845894758,5.92086325700704e-07,0.000329572788930657,0.000692836733164916,0.00031962201463162,0.000433553952020637,0.000473182400856057,0.000734717872704215,0.000141359710189761,9.51923133512846e-05,0.0255204200580739,0.000547852460236406,0.00484936184342384,0.00770259111909475,0.00589210979205995,0.00703286215172266,0.00826064907462946,0.0123132732230392,0.00273788892360826,0.00363102025710318,0
