0.0138299654634925,0.000240860682859082,0.00071937681648645,0.000231381052737577,0.000753666136481732,0.000330371014911641,0.00584241716488783,0.00758446350632379,0.000228075992447243,0.00132520889285045,0.000192055200195937,5.82808179426333e-08,5.20078077087675e-07,5.37099594115644e-08,5.70866160438829e-07,1.09591583938543e-07,3.39084393425067e-05,5.74550972432483e-05,5.22754416464304e-08,1.76495916347073e-06,0.011385303337052,9.03608355913104e-05,0.000382146409719256,6.59676600776175e-05,0.000443922854767249,0.000127604714515823,0.00189668042122348,0.00617657261709017,5.79697935567202e-05,0.000847086293347576,0.000382306721012937,1.15755544579587e-07,1.03238845335478e-06,1.06699397973561e-07,1.13583875549069e-06,2.18188425939153e-07,6.78723209530759e-05,0.000114681852920106,1.03742927035604e-07,3.51230324555016e-06,0.0078850383648854,6.05479124996718e-05,0.000226403211120747,4.14372875129062e-05,0.000202285797010282,6.84595073149317e-05,0.00189649993105263,0.00361564001210804,3.66976455271899e-05,0.000606891698406667,0,0.0127746348173495,2.85285677898296e-05,0.000450433730432733,0.0003200273478985,0.000311536344665474,2.85285677898296e-05,0.0141245137378767,0.017477308137316,2.85285677898296e-05,0.000692707500728568,0.000164005714733747,8.13330144669747e-10,2.03873590871462e-07,1.02827654537711e-07,9.75041117569024e-08,8.13330144669747e-10,0.000200502692661219,0.000306840719974082,8.13330144669747e-10,4.76286327864233e-07,0.00922457715322959,2.06635337686722e-05,0.000193831832133528,9.90672230157355e-05,9.44878196824866e-05,2.06635337686722e-05,0.0103994629487628,0.0142998064112351,2.06635337686722e-05,0.000492123818846401,0.000326370463034409,1.6231000222149e-09,4.05743912548908e-07,2.03622175672073e-07,1.94064468476525e-07,1.6231000222149e-09,0.000399001379515185,0.000610757627371904,1.6231000222149e-09,9.53747197169552e-07,0.00805907753799386,3.16536895566341e-05,0.000130347983724308,6.65185779026656e-05,7.2476908335867e-05,3.16536895566341e-05,0.00956246318626025,0.0106585383292008,3.16536895566341e-05,0.000694110478293035,0,0.00708294667106572,0.00212747087420863,0.00495376100696193,0.00208177867211231,0.00416789601468116,0.00207252588328088,0.0104128052995943,0.0190116313452255,4.57969427592128e-05,0.0140855936777544,5.04193546225118e-05,4.53948976564345e-06,2.46260236122689e-05,4.35451802401582e-06,1.74584139681819e-05,4.30070420222873e-06,0.000108730724556473,0.000363237143870121,2.10244918310954e-09,0.00019939345718906,0.00538963613023237,0.000428954334553267,0.00120731043256912,0.000360442842186547,0.00112584866831195,0.000427358148856678,0.00785517296486308,0.0148685393924462,3.25557559542027e-05,0.0114047648832671,0.000100334661416135,9.03773605349884e-06,4.90309056934993e-05,8.66356137981765e-06,3.47002648280082e-05,8.56017533802614e-06,0.000216607894203715,0.000722790670728822,4.18915826288855e-09,0.00039679511185467,0.00434130624707198,0.000603977341781034,0.00145560349323339,0.000559095789495016,0.00139074138858177,0.00059517580369235,0.00623783910469322,0.0136687291356257,4.91882758414247e-05,0.0105426269902378,0
0.0160301859765238,0.0312085547368755,0.0272233408025441,0.00852203834908253,0.00289574418576711,0.0010045000122115,0.072517903197004,0.0169879262884673,0.0423636005788661,0.00604472799034865,0.000258151987826437,0.000978795964495889,0.000743624711398734,7.29208683143499e-05,8.42642036269537e-06,1.01400861624371e-06,0.00528521836394113,0.000290015544054946,0.00180369151009201,3.66915504105322e-05,0.013028885832242,0.019892967403491,0.0174154775342833,0.00499747926467323,0.00173904269626173,0.000538598729022008,0.0505116357606647,0.0140172788282448,0.0288050927449984,0.00459791330227313,0.000513827378259208,0.00194787358860557,0.00148098403030943,0.000145176663425634,1.67515197869058e-05,2.0177812613397e-06,0.0105172122205438,0.000577145168127013,0.00358933812953398,7.30414333536001e-05,0.0117513149076977,0.0220073011791244,0.0165382150083955,0.0057606034535027,0.00140147604160256,0.000421375885090321,0.0355247489823951,0.0106846206477743,0.0363950204556966,0.00430043649606385,1,0.157797983260968,0.120953113477737,0.0548531868038992,0.0214765220152515,0.011271404438574,0.0113143900974519,0.205921847089767,0.038182233082879,0.134382860549276,0.102489084758008,0.0250249444655691,0.0146962676036707,0.00302379014326471,0.000463544997723715,0.000127522285090328,0.000128630239759167,0.0424592591316127,0.00146449338990493,0.0181380607526834,0.0105500489766372,0.0940652784582014,0.0830134787468456,0.0376084140401906,0.0150377939712987,0.00573094560742835,0.00705451958553014,0.143303493925011,0.0297099215017778,0.089955050004014,0.0735611307891017,0.0497956091489864,0.02925241528641,0.00601737283898161,0.000922437499425006,0.000253922599574147,0.000255969809604511,0.0846496554177484,0.00291490288684923,0.0361058587125965,0.0210000912852027,0.078642746283078,0.0675814942214074,0.0268899912311373,0.011208251036083,0.00579964178127018,0.00504036490704686,0.148206345667661,0.0182883057767095,0.0852537690484887,0.0759709951385861,1,0.0652685621907367,0.409726642446899,0.23071162362413,0.0446830366232362,0.0244476613526189,0.0216991057802189,0.224915278375694,0.19484582586457,0.296838364220897,0.0530062572322181,0.00427956307500236,0.168666287441323,0.0534620687141113,0.00200660664032264,0.000600629386303944,0.000473170951102502,0.0508308421308961,0.0381362632930547,0.0885470972211559,0.00282313220006523,0.0509660510582447,0.32058576968499,0.176535429132366,0.0364780423246367,0.0183127075923019,0.0170262716666145,0.169271513810555,0.158950925357867,0.212078116281092,0.0395941632623307,0.00851796613501634,0.335698138499272,0.106422295475216,0.00399313835795198,0.00119530091697721,0.000941647489052989,0.101163352396277,0.0759097512835421,0.176216850011525,0.00561866465695955,0.042349523766885,0.366984425298018,0.215326206460734,0.0405246043814604,0.016881581715728,0.0151338258356068,0.193756040818942,0.180540302941207,0.213198796491714,0.0450874813540501,1
0.0168744020947573,0.0067206852231908,0.00701850516035153,0.00146327016576393,0.000716547313316273,0.000439804566486403,0.0322038520395205,0.00852525162532212,0.0293742515525171,0.0191213989830845,0.000285891283971709,4.53182549262909e-05,4.841113835907e-05,2.08516659505944e-06,5.1527578179737e-07,1.9426767045344e-07,0.00104229738981488,7.30418088876276e-05,0.000866964319718408,0.000365774855288573,0.0137538506002749,0.00467737491772945,0.00492178022102156,0.00104986961423595,0.000464488619483333,0.000271077893410025,0.0239925708807379,0.00691802875207083,0.0214894041865664,0.0129952228942176,0.000569205618304667,9.02592019778224e-05,9.74173743522175e-05,4.21549718247837e-06,1.02613610207161e-06,3.86504459235854e-07,0.00207407364737789,0.000145342538699641,0.00172542727690219,0.000729572795265566,0.00922417803370117,0.00354350391233596,0.00571028934420975,0.00151693233822441,0.000277791520541494,0.00019003219109653,0.0192201168698345,0.00485298070605387,0.014526897708724,0.0096105004987488,1,0.319246106869454,0.181064748724097,0.113980588684395,0.047133297865492,0.0195564986543893,0.0169874438214103,0.172641345664678,0.248396273970843,0.111146354337675,0.11622872167619,0.102313037570752,0.0329443293154084,0.0130550676255973,0.00223260947895598,0.000383890645753433,0.000289739977182888,0.0299122577659468,0.0619974377455294,0.012401198587275,0.0135611273634405,0.271942045446455,0.152423841714643,0.0932477698507831,0.0378641753314749,0.0165871086699883,0.0135758881012808,0.147344550402029,0.187244847216499,0.094557760501475,0.0966855683698979,0.203709386939653,0.0655627760665562,0.025980225362604,0.00444293800751466,0.000764347308715267,0.000576862318989781,0.0595674281836729,0.123385809967824,0.0246911451007681,0.02700241712946,0.253390702224684,0.15756445810807,0.0952941647847048,0.0423941897928434,0.012938445188643,0.0146287466557992,0.167302610662765,0.15616157241667,0.0953960239815014,0.105366714854154,1,0.0720659700049752,0.111134350142656,0.112734768091916,0.0485729053148928,0.00643659751218335,0.007280997761687,0.1193675950775,0.0753409076863052,0.100610117345902,0.0153499050024025,0.00521946849327465,0.0123722177541833,0.0127486518299749,0.00237052783988124,4.15822478020754e-05,5.3273379621566e-05,0.0142984516201834,0.00569303494077428,0.0101683029573206,0.00023680357200701,0.0567500358915803,0.0928395972183538,0.0880011533615689,0.0326324729474931,0.00438725524054058,0.00531664587926383,0.0895762867155828,0.060505025962858,0.0856417697211246,0.013028696560421,0.0103868375431621,0.02466117433073,0.0253938933693971,0.00471799976374194,8.28038438409473e-05,0.000106019045163873,0.0284755813478848,0.0113408134588222,0.0202398543432752,0.00047123832771287,0.0653314922815026,0.101652906351459,0.0759631252176126,0.0248178739499928,0.00332366646594076,0.00483951629255976,0.119456432919499,0.0630885951490553,0.0807085531816297,0.0142317416354838,1
0.0138912063231691,0.00123929526869857,0.00069501736280523,0.000405049842508388,0.000769841988610055,2.70337938837111e-05,0.00930085185962832,0.0090271542152924,0.00251056727605679,0.0115788438580778,0.000193121751059409,1.54336030091656e-06,4.84121728095609e-07,1.6480625260331e-07,5.95534345022896e-07,7.22435253738678e-10,8.63713186008846e-05,8.13816910084463e-05,6.16936536975545e-06,0.000133645116785574,0.0113434317841157,0.000916741168645282,0.000423370045054684,0.000167124732155619,0.000410145871846155,2.00759311021505e-05,0.00666195434357217,0.00700397179732942,0.00171793305987186,0.00859453583185876,0.000385110533373622,3.07084070707215e-06,9.63490164267269e-07,3.2560158056784e-07,1.18081090426783e-06,1.44964896703194e-09,0.000172445005408137,0.000162435697426327,1.24413943471282e-05,0.000267044937784354,0.0084014007917405,0.00138034312770244,0.000277514554094404,0.000100258796835152,0.000267802250185471,3.19051560055897e-05,0.00508696304921165,0.00535072950556597,0.00271061061835851,0.0137193972861387,0,0.120510836971858,0.05286727838753,0.013355579753877,0.00827441147041542,0.00607783259989621,0.00596566737488239,0.116273292698553,0.0485006428130223,0.0193997784307302,0.0261504652414124,0.0144778082987029,0.00280892991036145,0.000178558379297814,6.87779446082699e-05,3.70597795725215e-05,3.56479536433266e-05,0.0135512549273824,0.00236006419447851,0.000378039402560913,0.0006848365496339,0.085908806031846,0.0384940156256822,0.0101833752628005,0.00639883492278436,0.00435144263333432,0.00438135690231462,0.0890836532613514,0.0379406811413244,0.0137356409359444,0.0206284567415429,0.0289277257235676,0.00558971766911623,0.000356036591870738,0.00013689763868631,7.38145291012658e-05,7.1058298712818e-05,0.027002770746991,0.00470048832230012,0.000752476165418601,0.00136524498622788,0.136433259881963,0.0606364332843014,0.0156555148554719,0.00901986592415818,0.00689063295156898,0.00671371261535351,0.101370758231124,0.0504375633075919,0.0214298644386543,0.0231299196413511,0,0.0150943607470549,0.0179121457497653,0.0205226530810102,0.00903819447105579,0.000894574964906537,0.000608901608471175,0.0102463477310602,0.0214825008425516,0.0209687731865139,0.00889935961416514,0.000226698412765895,0.000321461005085415,0.000422320909826349,8.16250674125913e-05,8.03290192857387e-07,3.72623012079876e-07,0.000105091159959651,0.000463261573197499,0.000441371920539211,7.95744376805332e-05,0.0112652141412768,0.013001213941152,0.0149351228423695,0.00647580551893889,0.000612679714562247,0.000440777926292565,0.00791922073452175,0.0172123762471513,0.0151314141089564,0.0073019102620275,0.000453393887133525,0.000640688831133589,0.000841352541055235,0.000162902875341529,1.59819127897765e-06,7.41512471985906e-07,0.000209542843534667,0.000922358881181399,0.000878816819077681,0.000158335388676053,0.0156999045782718,0.0200067845339176,0.0229004512679042,0.0103746334359482,0.000726903279146171,0.000586094123931861,0.0112479153515447,0.0153288147644453,0.0234222433234918,0.0064062485583565,0
0.0168245657657812,0.000211112447366069,0.000718314210438513,4.46036674501389e-06,0.000895281024768229,1.78448580768614e-06,0.00079206775847119,0.00721277896901592,0.000147438670169872,0.00110216292497408,0.000283737276708284,4.47057723562703e-08,5.18509203218468e-07,1.96602753832184e-11,8.05000529924013e-07,3.10699722707336e-12,6.26443600934476e-07,5.21592301463761e-05,2.14630046865672e-08,1.21111015245524e-06,0.0136871054254081,5.83413284268069e-05,0.000401711922276213,3.36289031810098e-06,0.000552834898728819,1.26523480066267e-06,0.000441805193611397,0.00568977159197955,9.90446116231845e-05,0.000810591884743613,0.000565380556625807,8.86854998469419e-08,1.03085093423895e-06,3.94567806166344e-11,1.60160119173508e-06,6.27584569440637e-12,1.25028115688114e-06,0.000103911981478302,4.30938445784239e-08,2.41821874895786e-06,0.010647766788778,4.87055083487988e-05,0.000251804229125664,5.23585996886627e-06,0.000244121184322461,1.97992889923325e-06,0.000265444722212315,0.00393026514491149,0.000157980297556478,0.00102321313254109,0,0.00717769741308564,0.00318536989113785,0.00104127529156664,0.000679524845438438,0.000725533296568473,0.000428356995013437,0.0109197801537459,0.0145798936247134,0.00105261049011219,0.00278456112977619,5.12901472766748e-05,1.01736770423543e-05,1.08754408028032e-06,4.63086933948495e-07,5.27396471501297e-07,1.84076717993532e-07,0.000119392388464997,0.000212824333526047,1.11231074166865e-06,7.77117052775001e-06,0.00513725776502411,0.00220334167123748,0.000771620952287692,0.000484242567177365,0.000468677679267801,0.000294752132200661,0.00889450633953066,0.0119030578646808,0.000731753029291719,0.00195126323522472,0.000102552822145461,2.0268768801874e-05,2.164732814456e-06,9.21679810588849e-07,1.0427439428316e-06,3.66451636412631e-07,0.000238037009333773,0.000424275175791395,2.21466721122122e-06,1.54843184176428e-05,0.00716778764788532,0.00352165313663336,0.00106210776468555,0.000687423922232017,0.000407073269916048,0.000410198643452473,0.0075023240668483,0.00873646946745282,0.00116358226179442,0.00311906885686964,0,0.00487315470893289,0.00102774132784458,0.00133736053022801,0.000579749382597214,0.000813151973919793,8.80096438560559e-05,0.00698650858115795,0.0162184910994832,0.00121737239589572,0.0114286793800212,2.38370051178807e-05,1.06130073978575e-06,1.79619396275353e-06,3.32810581061546e-07,6.64538787941003e-07,7.7305383242668e-09,4.87483066276544e-05,0.000264321741428317,1.48944167314865e-06,0.000131044702614671,0.00347481013086405,0.000728933439499555,0.000963223094940641,0.000384946066347249,0.000495162915558899,3.65887575146457e-05,0.00547718267510057,0.0132070412942844,0.000879283594264904,0.00891538879629238,4.74638890918948e-05,2.11217752467983e-06,3.57518057087506e-06,6.66878902306131e-07,1.31551297877136e-06,1.54364354678416e-08,9.73157241138972e-05,0.000526030834836887,2.96390376485138e-06,0.000261004014777855,0.00225673438747715,0.00113729164298888,0.00121638104319251,0.000578487420315539,0.000239051913779735,5.68138858277685e-05,0.00302118269400769,0.00916444876050372,0.00128905234271117,0.0081470360997758,0
0.0153759822548387,0.0800713792473435,0.0192270013225411,0.00621484859878585,0.00230125139098095,0.000320017203868643,0.0418249605403658,0.0115489244999341,0.0611563188171688,0.0227918374829445,0.000237574601294603,0.00644208515516947,0.000370474622135196,3.86600757114822e-05,5.3173117767087e-06,1.02902818676451e-07,0.00175563416548631,0.000133862081700871,0.00375057821980384,0.000520831710893281,0.0122449187572206,0.0490337200608902,0.0114485129378437,0.00385154469658788,0.0013266694086428,9.90393689528581e-05,0.0241359048255455,0.00883652675245035,0.0370757758471119,0.014029260123119,0.000472796449342038,0.0128210353655314,0.000738293658796706,7.70788232191372e-05,1.05838924153015e-05,2.04799296205706e-07,0.00349606402853361,0.000266567040952422,0.00747192050580745,0.00103769167362239,0.00956959216447674,0.0556656525822518,0.00989249010949219,0.00285899293854987,0.0011407442538312,7.25804135021103e-05,0.0253248373237482,0.00902414687571591,0.0399973926476621,0.0163970126665864,1,0.207377719446563,0.158923123218795,0.0246582032351693,0.0133603666362871,0.00673210673060001,0.00843167108706862,0.106083258802119,0.138850920511896,0.0765696767052684,0.0884836353570605,0.04292856857695,0.025379225693032,0.00061089536996742,0.000179092408438382,4.5539361623112e-05,7.13716035016034e-05,0.0113049848710032,0.0193439211375315,0.00588546311648191,0.00776771758795613,0.127154631594866,0.0769820110119684,0.012664944100659,0.00662339626233737,0.00344359026378885,0.00491235248504148,0.0736827119509167,0.0678344536332683,0.0430035172737854,0.0561979184719408,0.085718773511729,0.0505051960650354,0.00121493416965023,0.000356606135563268,9.06057168569579e-05,0.000142107784858065,0.0225010087591296,0.03852507627805,0.0117189511593338,0.0155575341525566,0.100006103369804,0.0850945414673278,0.00846415152479461,0.00678148016206465,0.0030072325944198,0.00430214482147732,0.056518719831952,0.063769222545572,0.037711053686125,0.052642331490975,1,0.0372649384480176,0.302088779722193,0.175689031162501,0.0245979613339252,0.0195916499706908,0.0172032836822091,0.142198716404207,0.122384147643337,0.194506915048096,0.0445120884511817,0.00138597919437466,0.0915852473295962,0.030934611542332,0.000608055211339875,0.000385685329838624,0.000295255491319998,0.0203000684295324,0.0149884622446852,0.0377443455187498,0.0019892257215486,0.025192175676086,0.197842803647002,0.118327919088701,0.0161586032856064,0.0137287746243287,0.0111232208754902,0.096001721730119,0.0834914411262256,0.122921551284443,0.0298914721319917,0.00276757397312561,0.182384839948479,0.0616465348098661,0.00121007207273885,0.000767580492204976,0.000589732068666845,0.0404186767313668,0.0298913139049266,0.0753885574871702,0.00396050451066213,0.0244143461106006,0.231586480083105,0.118443395805778,0.0161834215211322,0.0140018775927943,0.00961388167016241,0.115796882541496,0.0820784564101207,0.141505433329575,0.0338469919204486,1
0.021360278551905,0.0655610496381562,0.0130277933288256,0.00462813302167059,0.0017360236077902,0.000533612715380773,0.0404926766768096,0.0145726746172197,0.0615607728448844,0.0165560032950015,0.000458343759538628,0.00431587289937901,0.000168779270347289,2.13538467883917e-05,3.02086966999807e-06,2.86171921829015e-07,0.00164764742787817,0.000213429989002154,0.00377966548383114,0.00027239482803788,0.0167270779260434,0.0475217146174382,0.0100030561678571,0.00337128357176812,0.00107230904481908,0.00023190522390268,0.0337701775542234,0.0113835987469528,0.0497422669925775,0.012997299429054,0.000912308875694259,0.00859244325721396,0.000337643762854576,4.26657182712819e-05,6.01850787555571e-06,5.6837494920094e-07,0.00327893483311877,0.000424722879019411,0.0075504927984514,0.000545134070037095,0.016828738564809,0.0493853599235229,0.0108713688756835,0.00329368029368585,0.000729779925186362,0.000190519106635628,0.0378243989099696,0.0090527488112995,0.0507377979476445,0.0124082689427298,1,0.184889716039263,0.250993511439331,0.098026044301626,0.0358862189828367,0.0155276321091832,0.00881508440246806,0.0497046003761299,0.358465268793731,0.122170267401225,0.161248926818365,0.0340523526224923,0.0632894946437075,0.00965474949069949,0.00129254658541499,0.000242133347235565,7.7956047289517e-05,0.00248266653501637,0.129094717551166,0.014988729816496,0.0259669110562302,0.138815645811404,0.189815941609038,0.0787029500982185,0.0296688071157668,0.0120599116329276,0.00586351914484861,0.0374816176514021,0.250583943807417,0.0938048548252755,0.12633881917413,0.0680662698330306,0.125965792875826,0.019215580411937,0.00257388171729802,0.000482014465340285,0.000155271069585504,0.00494079509225916,0.256932282275262,0.0298388081295884,0.0518382336044256,0.179980788132442,0.164262637113105,0.0909292167025208,0.0354090055899304,0.0116903130094757,0.00634105816200336,0.0484420802123658,0.244776250821765,0.104382106596999,0.138261801022406,1,0.107617874277701,0.118122579365649,0.172469875043624,0.0493668552115576,0.0106796974207474,0.0190429606191407,0.112919650593298,0.0876240254908865,0.147596147753911,0.0238140908348312,0.0115925589236742,0.0138575112666717,0.0297932520457139,0.00244915472803322,0.000114613533028796,0.000361826938415245,0.0127811259228,0.00768534024832444,0.0215327721979892,0.000567450942958709,0.0870385293238809,0.0990672653335945,0.134307961178242,0.0384317466107858,0.00769042609944494,0.0134754701689113,0.0964255637964379,0.0694847596931389,0.114314732862469,0.0202049630237551,0.0231161935246879,0.0277406854024776,0.0593895736756917,0.00487397322949988,0.000228090356134769,0.000722651349779767,0.0254678684827502,0.015324645261294,0.0432095075921188,0.0011317128743583,0.0858647400554567,0.111291962573663,0.129587977156122,0.0280468993195206,0.00690825798194208,0.0138588000097939,0.0861217032481308,0.0887141685778064,0.112577630149849,0.0161078228818445,1
0.0173407057983699,0.0060535461666427,0.00249253327164719,0.000408061649118458,0.000742635561492418,0.00236024587046132,0.0216556028531622,0.0121090023084991,0.0170129203209656,0.0338710101694582,0.000301134746762996,3.63885102978662e-05,6.16717963963949e-06,1.67134350559106e-07,5.54265704095922e-07,5.59791729529765e-06,0.000470657685617431,0.000147302242102949,0.000285597172546368,0.0011510700637341,0.0142952332555269,0.00463623397057389,0.00191150832564088,0.000284033405528999,0.000425989351996354,0.00121888434359497,0.0168646037786945,0.00988451828744578,0.0126407261657459,0.0267597788508467,0.000600326790503551,7.28519872675432e-05,1.23344331701882e-05,3.32460426700569e-07,1.10267179205056e-06,1.11400227325982e-05,0.000937245094766069,0.000293193117935829,0.000573605438883181,0.00229255834515104,0.00940448803300533,0.00729434845731005,0.00282829818768691,0.000386248522157842,0.000210013285557465,0.00130531962510778,0.0155102032715753,0.0122755229607212,0.0198141558733644,0.0276628119564126,0,0.00963099426374395,0.0287462210548784,0.00718756269339228,0.00419818273873174,0.00206457094439339,0.000577238954117759,0.0705758378194541,0.0305505184264183,0.032692839471729,0.0203045274634731,9.32215730267577e-05,0.000823781065791021,5.04963106332384e-05,1.71762007953253e-05,4.18340082259909e-06,3.27201443308982e-07,0.00500236086872206,0.00093617171115336,0.00107388185104968,0.000406640018556528,0.00586000380946255,0.0181920550375499,0.00408678104066744,0.00292256301786724,0.00149665120200965,0.000414234226445578,0.0512679501354816,0.0236888165689328,0.0187625683514354,0.0143246960049798,0.000185469359295594,0.00164599613981117,0.00010189989401068,3.47141339967227e-05,8.4242076780819e-06,6.58466285441787e-07,0.00995797282267725,0.00186436671595058,0.00213733414891554,0.000816829353772327,0.0055431577989527,0.0229051540346049,0.00399934286508485,0.0045368305784426,0.00218703674634127,0.000604971378834602,0.0349887057783173,0.0167964184874332,0.0173901316270363,0.0124018392813831,0,0.0339289525365217,0.0179701932012464,0.052743802748945,0.0154682439983445,0.00126389646812173,0.000881536584427626,0.0234523652788398,0.0381049048102122,0.0182624730626872,0.0120340361051782,0.00114525768483744,0.000322765348633239,0.00279559005640018,0.000240178875822233,1.58533982092446e-06,7.62941479949717e-07,0.000552368248244346,0.00145220555227261,0.000330467275608623,0.00014554121706471,0.0255644609863533,0.0136337792131559,0.0416532504882137,0.0114600585321189,0.000926916968982052,0.000647345444912959,0.0177474450438282,0.0288365315776647,0.013956257662918,0.00960827423303135,0.00229067511260283,0.000644069499277676,0.00556350214927657,0.000478229430444938,3.17348283030932e-06,1.53622799122652e-06,0.00109961259355822,0.00289692351820806,0.000662329771503135,0.000289583500851267,0.0343702513025652,0.0209136566473531,0.0634389488364342,0.0172409738363918,0.00125297726130187,0.00100582418799306,0.024298414381525,0.0333722700677641,0.0216060902719013,0.00817003472170345,0
0.0158555405655465,0.00042291397646803,0.000639732974684274,0.000234505709290111,0.000712554490393987,0.000855702539371325,0.00741061264886693,0.00732362149968651,0.00210373106380282,0.00586516013135312,0.000252567549991705,1.74435960286638e-07,4.10304852447857e-07,5.52652648454484e-08,5.10068184594086e-07,7.35339507295844e-07,5.49916635991375e-05,5.38994796661876e-05,4.40710203001497e-06,3.4089961602789e-05,0.0119896686256304,0.00030002362525089,0.000372446597036467,8.62892866332881e-05,0.000397664115233547,0.000609832331370368,0.00571748266098522,0.00595222673665038,0.00124826631976488,0.00436205497296867,0.000502699645144551,3.5241979269074e-07,8.17217083803393e-07,1.09710418239255e-07,1.0152515263644e-06,1.46336053608624e-06,0.000109632286801581,0.000107258232258646,8.80948149102919e-06,6.83196063594435e-05,0.0116083569800067,0.000469061145317502,0.000183548264907187,5.69336613978767e-05,0.000248782577372819,0.000893855677103726,0.00443899103844892,0.00491213982059618,0.00149078185036939,0.0066542588553627,0,0.00117849549160268,0.00189390171418106,0.0007447738231217,0.000373171417697887,0.000598861231208364,3.0109698076113e-05,0.0199164787560685,0.0197971107508741,0.00155074520799997,0.00269863864006086,1.37433579797933e-06,3.49839654841436e-06,5.57447633942846e-07,1.38530082243022e-07,3.60312630328334e-07,8.88505450803604e-10,0.000398380697683059,0.000393186843125031,2.35697604350237e-06,7.31857114640143e-06,0.00078596707371168,0.00134844085123085,0.000474868485910739,0.000188248023526502,0.000304197486241859,2.16630281840264e-05,0.0153910980492419,0.0149819965722233,0.00109218551349772,0.00201959837542234,2.75631256606531e-06,7.06776735550373e-06,1.10511552190451e-06,2.77093943874213e-07,7.14658165586114e-07,1.79064654307757e-09,0.000793045322164781,0.000783141059125183,4.74955664479978e-06,1.45643412585276e-05,0.00125389537560127,0.00210540197280657,0.000349604933540755,0.000209866754299393,0.000192945973032919,3.3397301663615e-05,0.0142651256862336,0.0142043076485036,0.00169841178795827,0.002391337422269,0,0.0164112034201565,0.00115693998815548,0.00410153795639288,0.000929868191194531,0.000751879239896852,5.02026657976392e-05,0.00934455236828294,0.0198275744833995,0.00123640235134746,0.00822208818848324,0.000270642295119163,1.33784209523572e-06,1.68589319229163e-05,8.59228375165959e-07,5.67737450103505e-07,2.45737796382276e-09,8.72772238099226e-05,0.000394931105656198,1.51738692629019e-06,6.79404458461689e-05,0.0131518615864516,0.000835665631716322,0.00293758802394923,0.00067641725152815,0.000437538693564625,3.57083174228566e-05,0.00805798240762315,0.0161910505361358,0.00089949088871935,0.00669408744169147,0.000538585794647043,2.66959055269405e-06,3.35963290319714e-05,1.71946864717817e-06,1.12994995580279e-06,4.96539718205588e-09,0.000174152775427951,0.000785957662439344,3.03843304067425e-06,0.000135203257714264,0.0108903660251569,0.0012799587521331,0.00448857683710091,0.000984653015660487,0.000233296630804059,5.56880077186221e-05,0.00969811653195168,0.0103820718869764,0.00137251804111731,0.00609760817008126,0
0.0029881539431426,0.0398900374265469,0.00626136215590677,0.00306806927394712,0.00140163280538776,0.000350488440312557,0.012226121049993,0.00617458495287921,0.0338080773612837,0.0137500620776844,8.96249516593277e-06,0.00159815625440955,3.93948372439038e-05,9.4157930928466e-06,1.96667331311836e-06,1.23449205801434e-07,0.000149851371415543,3.83170752674375e-05,0.00114863219206038,0.000189914480527113,0.00227015521802508,0.016384857725693,0.00196425766248881,0.00126001982062577,0.000628010456908924,0.000112870608763764,0.00813567559509367,0.00490808048714287,0.0133938906244874,0.00527702664540334,1.78385091581658e-05,0.003181043185932,7.83672992383449e-05,1.87799107495138e-05,3.91747768623582e-06,2.45193740996154e-07,0.000298577791800769,7.62273484163032e-05,0.00228570533641,0.000377993899591307,0.00195581340760663,0.0186406541230527,0.00223270047135744,0.00128022589239941,0.000407737799434474,8.39052326285815e-05,0.00751940996025582,0.00441156816769467,0.0165217732234538,0.00667345445329068,1,0.0818898488584453,0.113340218040024,0.012150922404168,0.005048282559482,0.003385908250236,0.00502302161797378,0.0893802472186254,0.091202560444717,0.0942855888610078,0.0646102593673527,0.00673960942592234,0.0129097277431301,0.00014780318563604,2.55915944132771e-05,1.14753757259916e-05,2.5229870031539e-05,0.00801826035580033,0.00831122889031901,0.00892700932051973,0.00419354074225834,0.0383649777101953,0.066295107721243,0.00662418929929106,0.00258389851458327,0.00178269652037362,0.00261916325436636,0.0602775228807001,0.0476975373730694,0.0558693210380289,0.0349601987750704,0.0134118556810956,0.0256907103469829,0.000294700357238284,5.09447958779908e-05,2.28684113334528e-05,5.0334347919941e-05,0.0159666058369698,0.0165875462861899,0.0177721026291206,0.0083470574029185,0.039877127894271,0.0822371983023814,0.00774577529699865,0.00304718172031937,0.00188321141963748,0.00283650967152306,0.0492449641885476,0.0446931809035159,0.0657237378659262,0.0347371657653874,1,0.0367004206960082,0.167430733649891,0.13309864784469,0.0245000286228824,0.0191573233155023,0.0168129200248166,0.0954718815203298,0.153122113371174,0.123251444666843,0.0355724038723787,0.00135147695717423,0.0281480159862494,0.0178027405254473,0.0006032092219432,0.000368839407349822,0.00028397857970558,0.00913921863976805,0.0235622539748754,0.0152429633443105,0.00127117368651685,0.0263533553888089,0.0978707949794977,0.0913845450158091,0.0161012814191115,0.0138618397382645,0.0123286313667333,0.0626505791327572,0.109143860346041,0.0817887022250272,0.0247118148466499,0.00269152261583362,0.0560403041110214,0.0354267344216293,0.00120044455299798,0.000733948946849384,0.000565228432303787,0.018205298960709,0.0468904921475032,0.0303576069855871,0.00253019654055493,0.0224470544651445,0.117883394368378,0.0700512361785971,0.0151467584388818,0.0133101336308288,0.0132385120868071,0.0646434853319154,0.140417424772095,0.0740988499572726,0.0218737876488812,1
0.0122138592258802,0.0740580333155988,0.0467108192873535,0.012488794022679,0.00615124390053714,0.00193153962294003,0.0716780531473529,0.0141485325192124,0.0820194441489841,0.0311420183899868,0.00014966059458436,0.00550689012231837,0.00219270497473838,0.000156661245423463,3.80173546804157e-05,3.74959150676871e-06,0.00515509698899582,0.000201132272936147,0.00676089436920221,0.000974416110323368,0.00979226038035455,0.0601747593327936,0.0379795259229504,0.00878620128840007,0.0036582970383874,0.00135463588457151,0.055950859528364,0.0112843484465578,0.0652570183760098,0.0211212342894536,0.000298080825141436,0.0109633582098676,0.00436352737105689,0.000311749133600653,7.56557772965246e-05,7.45878584865473e-06,0.0102670144710499,0.000400305615958736,0.0134541128450485,0.00193936664074224,0.00749617881689975,0.0480329545544251,0.0242970530743036,0.00747811997076119,0.00324045796672845,0.00101974928937389,0.0387242960563234,0.00992729498426747,0.040545645817309,0.0173121133694413,1,0.411514755177917,0.307330278829633,0.0683050629727061,0.0257668300403549,0.0158607253908994,0.0140768112363655,0.0916141291905057,0.112001281911109,0.165329859997854,0.053711608209097,0.170123069392536,0.0948921013737141,0.00468869365826976,0.000667139894208241,0.000252822356965548,0.000199140618215823,0.00842497541797799,0.0125604506256426,0.0274447337202598,0.00289702582577975,0.337417205329311,0.233950507455823,0.0555444644961485,0.0207973584317345,0.01270151717668,0.0111887491382871,0.0756208248461229,0.0788218083998854,0.125773320971941,0.0310712800807097,0.338615821392793,0.188869436431834,0.009330822259259,0.0013277312099059,0.000503120089987622,0.000396294712708828,0.0167759921598411,0.0250410880748126,0.0546414319788771,0.00576743185963565,0.303940529209758,0.210221950707294,0.0487771343038631,0.0163075352526522,0.0101693640526973,0.00838279205413237,0.084649231097267,0.0865865930066899,0.125193781969802,0.0376313360366338,1,0.0689234736073884,0.0936863436365775,0.167211721043423,0.081433474296347,0.0103273678444038,0.020897248735409,0.096657001286372,0.0801384828004398,0.0780636472000386,0.0319371121692549,0.00477288814542973,0.00878400286506749,0.0281001133547639,0.00666170200836387,0.00010719046079171,0.000438438451105158,0.00937777387089707,0.00645168937372029,0.00611342114084715,0.00102481520395068,0.0524249306585821,0.0775284487826194,0.135488668264886,0.0542506986622275,0.00792091658767791,0.0157983229306733,0.0735713500695105,0.0587598084901064,0.063187199175831,0.0252570287171013,0.00949943870540841,0.0175172016240593,0.0559186673081659,0.0132593618781391,0.000213308488771414,0.000872913245100894,0.0186728996013161,0.0128412989488814,0.0121767861785345,0.00203966935449102,0.0440935533472816,0.0803296438189422,0.109986152169892,0.0475249475351877,0.00599412619009542,0.0154314036701623,0.0598283875668196,0.0603473642009874,0.0500478828433622,0.0286657686199859,1
0.00547134251846661,0.0469469601051351,0.0132868545072205,0.0010944310770307,0.000757861465426205,0.000154792586833378,0.0426821272097996,0.00990167551675696,0.0382017512458138,0.047249880917407,2.99866544962431e-05,0.00221419213006362,0.000177307384779308,1.19621249703578e-06,5.77238088435865e-07,2.40438805333372e-08,0.00182645547226445,9.85314663394599e-05,0.00146664295544092,0.00224371621094437,0.00430804696906925,0.0369392996281962,0.00904760714776847,0.000838965307444839,0.000441461856223395,0.000104678203155841,0.034829173913835,0.00788088784754782,0.0283984033270603,0.0333660011550534,5.97721575603586e-05,0.00440710915608616,0.00035296025984085,2.38796805762875e-06,1.14565963000957e-06,4.78831299586312e-08,0.00363892806310409,0.000196081655707844,0.00291867277649214,0.00446494280052076,0.00349367254049573,0.0314821915496071,0.00984832890089489,0.00121137637034441,0.000240620266735733,0.000142691583711547,0.0282282638338601,0.00843601909974568,0.0215256717809259,0.0362426936529594,1,0.0521398020384593,0.029877116008311,0.0085874314191433,0.00368028808239352,0.00187175527562721,0.00144169017197763,0.0910301998522471,0.0261379983367055,0.01811700567492,0.0126345398164508,0.0026709417214034,0.000874425273743751,7.2473193550541e-05,1.33889384853556e-05,3.44412208589137e-06,2.03254358639032e-06,0.00831287382949115,0.000684889964731723,0.000324392764478378,0.000160433752414555,0.0378813510879146,0.0211304611025843,0.00609851960696446,0.00268621156871362,0.00139575123275644,0.0010292710976298,0.075101311490801,0.0209432436382762,0.0132524279223677,0.0100914226645058,0.00537611243059694,0.0017626852707174,0.000145853334229639,2.68618965557958e-05,6.92822361126202e-06,4.10084085308773e-06,0.0165577822821224,0.00136465636610968,0.000650988509832246,0.00031924364554196,0.0584542833969485,0.032565603618046,0.00937399549514724,0.00411310045530157,0.00206185577422765,0.00159836068921282,0.0795612553848172,0.0201507245125583,0.0202743345019558,0.00931144902023764,1,0.0415508232373129,0.0297163579311496,0.0502919768607619,0.0307255475331865,0.0021315855672529,0.00391353752558975,0.0276769679225425,0.0300629849160957,0.0200140110362283,0.011459539039877,0.00173439766249458,0.000886494448525131,0.00254116678376274,0.000945979599628707,4.56287726043197e-06,1.52957823438813e-05,0.000767648052300724,0.000906590002217021,0.000400257228621991,0.000131614139584165,0.0331444235296013,0.0219573355842843,0.0354141414335938,0.0241562526271937,0.00163300459391737,0.00286827126897494,0.0198845122661565,0.0238877054956453,0.014875789570526,0.00938679332035482,0.00345219645300723,0.00176508644842559,0.00505772365164583,0.00188530185245843,9.08324712748299e-06,3.05337868774146e-05,0.00152979965075113,0.00180583862980051,0.000798801840262845,0.000262275374662871,0.0333745163302717,0.034060330889329,0.0532791910612983,0.0358825734957399,0.00246866209070928,0.00453442456639782,0.0287303014056627,0.024002131550136,0.0228641965762992,0.00779009578371772,1
0.00205549703467926,0.00648091954949991,0.00140185846407845,0.000342376846913981,0.000786161329989149,5.63354767924684e-06,0.0117980742831607,0.0058002940604655,0.00497887353074221,0.00754450235173251,4.23834702076908e-06,4.21323901604874e-05,1.97480717837144e-06,1.17761969218812e-07,6.21083201607184e-07,3.14464846496033e-11,0.000139818339432342,3.3797287908509e-05,2.48625152654489e-05,5.67656431740682e-05,0.00147021076804708,0.00456431268585651,0.000985238296852058,0.00016739578133664,0.000461515847393789,4.09083914288044e-06,0.00967769155421353,0.00473739387457588,0.00352512966105775,0.00560406026841924,8.44200265367712e-06,8.3921718735552e-05,3.92969389958811e-06,2.33266609755452e-07,1.23504071529368e-06,6.30249940863714e-11,0.000278313734803392,6.72620100011004e-05,4.95180152972196e-05,0.000113391510057644,0.000880216173964324,0.00726996812470325,0.00130798176345639,0.000105699514766672,0.00022757777355079,6.23811253324264e-06,0.00733310365415116,0.00350138440471696,0.00481831120724813,0.00569485104917405,0,0.0118526056188136,0.00148469509793366,0.000788963820877273,0.000185231928680304,0.000717850401247201,0.000242561842606541,0.0287479266850598,0.0190916689427679,0.000990227919429888,0.00155099693492437,0.000141043162470265,2.17438573972441e-06,6.22902680562794e-07,3.37635267939936e-08,5.17746845055396e-07,5.90535540399791e-08,0.000818624011562999,0.000364622879049433,9.75662177426887e-07,2.38978441361296e-06,0.00838507995268449,0.00106713442073919,0.000536072982164928,0.000130354185455835,0.00039051690252684,0.000107080503945616,0.0217136763181329,0.0157040631782197,0.00071844730278585,0.00109903200439505,0.000280818797903931,4.36620977902946e-06,1.24047094981331e-06,6.79038416966297e-08,1.03046677412344e-06,1.17330588921765e-07,0.00164096755627176,0.000727276011618337,1.95129168996379e-06,4.78342544866564e-06,0.00641025661122473,0.00159101225771925,0.000434276212113184,0.000194837247715349,0.000220352175594395,9.40570853204973e-05,0.0244785987368008,0.0120631503581254,0.00109593485214615,0.00170651484565975,0,0.022290665371256,0.00192293090458926,0.00390042127643729,0.00291749257047003,0.00084979973056344,0.000351565696989106,0.0108119036700966,0.0221195142732797,0.0012917469414506,0.0076903134603492,0.000499299566712188,3.71621237354157e-06,1.5287302039829e-05,8.47449067870677e-06,7.25289565682931e-07,1.23834167388401e-07,0.00011727868497258,0.000491184494128939,1.67285598628644e-06,5.92279170808864e-05,0.0178305198605115,0.00136029773086161,0.00278923276969787,0.00201874982650005,0.000553544436131126,0.000218472567724098,0.00876526953110978,0.0178572919840921,0.000926345555379464,0.00605232014882517,0.00099365691136282,7.39529313455334e-06,3.04239471982591e-05,1.6943873215598e-05,1.43357083674976e-06,2.46598857912945e-07,0.000233585736336237,0.000977995923326607,3.33300026078016e-06,0.0001180669466921,0.0131692001788224,0.00210944154193784,0.00422089146576127,0.00323740220412307,0.00027033149062849,0.00029800923716672,0.00713363241072915,0.0166998772014659,0.00142821866583504,0.00514038256445115,0
0.00227495074064337,0.000369251196517168,0.00101559296424933,0.000326224021608497,0.000556974407889059,0.000318565341147671,0.0117685595410116,0.0072884447020016,0.0112968943551511,0.00536707005551391,5.20095702081888e-06,1.36278203391451e-07,1.03643836333848e-06,1.06955616042299e-07,3.11528072318492e-07,1.01967776837597e-07,0.000139074020464011,5.33857738240311e-05,0.000128241356254403,2.89135165076715e-05,0.00157610538939785,0.00025385217406608,0.000541717954960771,0.000119773103512776,0.00026611595365016,8.94217085612847e-05,0.00940133884850898,0.00546339843671672,0.00691736335403855,0.00435660838889971,1.03495597123041e-05,2.71935868110687e-07,2.06240147077335e-06,2.11729428832985e-07,6.20190873595376e-07,2.01820714191978e-07,0.000276875993310163,0.000106239822278281,0.000255219673244741,5.75481619015621e-05,0.0010613584393261,0.000408454098946638,0.00027957474993796,6.65282652013572e-05,0.000177954063259939,6.72081244269392e-05,0.00537325252874911,0.00531413227632943,0.00448662115723699,0.00258778187071544,1,0.00985255194545956,0.00936718009481095,0.000620500824398851,9.00330140162829e-06,0.000459293957623768,0.00022702971754803,0.0305574921664498,0.0173553317637881,0.000237014570677642,0.00565766324097788,9.75230956652984e-05,8.81390881107745e-05,3.86862334452138e-07,8.12468843313125e-11,2.11979771504009e-07,5.17944786826582e-08,0.000934030966591703,0.00030152104149242,5.64437853741497e-08,3.21694586375621e-05,0.00446047877512456,0.00300714004312246,0.000317098763148169,6.45967106420399e-06,0.000212336161094243,5.0558923959912e-05,0.0186987106201576,0.0132462941055556,8.2160967128866e-05,0.00168155598502505,0.000194069612074186,0.000175442407475143,7.63810836802398e-07,1.6189517617187e-10,4.20748920245669e-07,1.02779535622366e-07,0.00186305646912332,0.000601219642731674,1.12075969456664e-07,6.40172813824387e-05,0.00437373732806793,0.00361553126880924,0.00019590811883744,9.95161877080946e-06,0.0001303062184263,3.86792249540567e-05,0.0168980538965809,0.0117799340528397,6.25451463828264e-05,0.00208470850032893,1,0.0300853755106191,0.128867541357875,0.106113540239157,0.0236416234635913,0.0124320198426296,0.0108097684173753,0.0807766262385668,0.0624570462501239,0.101590294000357,0.0371397536649684,0.0009092885870236,0.016611361816513,0.0112554527321926,0.000560653811933808,0.000154888402996156,0.000117387572107258,0.00652224514618765,0.00391342494424072,0.0103503269759154,0.00138621599891485,0.021456092695199,0.0585962924489761,0.0424769503096484,0.012002877765338,0.00694438928550664,0.00529610803245954,0.0409239592629854,0.0409547354294307,0.0454753448887812,0.0210445221320845,0.0018098080061391,0.0331326650580412,0.0224586914193734,0.0011166009616339,0.000308668952733523,0.000233651354964367,0.013014072856609,0.0077946389787528,0.0206186692936691,0.0027584008104063,0.0176920456183881,0.0676808553827499,0.0402609179652255,0.012115160671905,0.00659343826006861,0.00667793684588236,0.0424060198876282,0.0305381168761816,0.0445982260757244,0.0200732749467578,1
0.0289280255557029,0.209905060242601,0.109714868574967,0.0391745550594829,0.0180594498336795,0.00793897288635864,0.112937804302579,0.0275258146083622,0.183208668239596,0.0769790521545739,0.000839104390772739,0.0442643604281849,0.0120876017724226,0.00154191976861257,0.000327512759459759,6.33362136102487e-05,0.0128042280738876,0.000760437437810112,0.0336906644783845,0.00594870321532515,0.0219362615140059,0.156900827042348,0.0810866257685089,0.0292720971816317,0.0116713583146913,0.00524635215512298,0.0835231258784837,0.0204977083210803,0.141567997581981,0.0590872258172389,0.00167172770157373,0.088100884750742,0.0240645086055081,0.00306885579023605,0.0006520172171657,0.000126032843327558,0.0254951135397165,0.00151426201644384,0.0670874906734835,0.0118447333575941,0.0210654834638212,0.149753154801196,0.0858907618172247,0.0313450004746773,0.0117159277223327,0.00523018496647623,0.0839877228350858,0.0151906933057355,0.111773934928785,0.0545414578438523,1,0.268350462900812,0.169130385411643,0.0354849789790656,0.0147291960292524,0.00884962675740072,0.0109783035766147,0.0929627831430355,0.0847200131667773,0.134119338616792,0.0362400951651537,0.0722194008597848,0.0286433574254256,0.00126426052856415,0.000218038953275155,7.87069648475793e-05,0.000120886342238653,0.00866850836892652,0.00720782978184446,0.018050983134977,0.00131975068141085,0.198991417512971,0.138117312689818,0.0275188727337873,0.0103486393607338,0.00645602340223433,0.00816395268023532,0.0726830444130718,0.0638098028560765,0.107977145093708,0.0300959324351997,0.143861679573631,0.0570984857593538,0.00251712279736483,0.000433886030450919,0.00015662768933612,0.000240802470466765,0.0172671898643295,0.0143492446080665,0.0359484790712441,0.00262647856630431,0.188564617947476,0.103343791344443,0.0205139434303509,0.00897607134193388,0.00532406037794416,0.00678812622629582,0.0621272941315558,0.0443219180334979,0.0942666419327291,0.0198493856364989,1,0.0714889934801384,0.157222341328839,0.210347407569396,0.0546906812074101,0.015982840756407,0.0244418071994898,0.141594550373651,0.0988853592377679,0.197470901460025,0.0525207762962098,0.00513633800217865,0.0248421250713476,0.0443992417885211,0.00299692324251514,0.000256529370168803,0.000600246210851686,0.0201201113369182,0.00981754736135433,0.0391906413613851,0.00277081880057115,0.0534072129244428,0.131897161412945,0.171496769783421,0.0364728887885172,0.012335177310367,0.0199854986671681,0.111097633225423,0.0756337478579126,0.149887016301239,0.0434811241635788,0.0102213055903654,0.0494367662757622,0.0884203772304543,0.00597300096988605,0.000510696567231327,0.00119464468108505,0.0400670782680903,0.0195467488917812,0.077989002150882,0.00551535989226724,0.0419577445144607,0.170473050165693,0.130793182965809,0.0391602575667157,0.0101200756221332,0.0212965177255678,0.105749805466632,0.0889987079345016,0.173520851107302,0.0510557109666065,1
0.0136157516091202,0.0765639386241828,0.0566857210540162,0.00802488103820625,0.00412215210258699,0.00290912131818645,0.0754081889849943,0.0149176598155978,0.120393535088795,0.0352279185357304,0.000184526007633289,0.00586961943581436,0.00320488086106008,6.4249886256379e-05,1.6817213919146e-05,8.50099421908257e-06,0.00569409908909955,0.000222241773171132,0.014488906928576,0.00124178671869942,0.00967821572701005,0.058354024070036,0.0413981211179208,0.00443968838515171,0.00224962073639517,0.00212900635397458,0.0618143462198221,0.0116205640669833,0.0882968638195722,0.0244896366253065,0.00036899199314783,0.0117022347672209,0.00640208302771305,0.000128326007696529,3.37249365977121e-05,1.69199277081057e-05,0.0113518660009764,0.000443620619261959,0.0289110651898514,0.00247657472834446,0.0115746201598005,0.043134849052829,0.0262192741551642,0.00544868266501526,0.00264445533994222,0.00262828536207122,0.0670977650540258,0.0112203029686366,0.066222967241355,0.0280467796420086,1,0.141262800464695,0.0938412368662794,0.0194672804544496,0.00461551309604932,0.0025884955667664,0.00419937664208632,0.0693267006660101,0.0701594245739558,0.0475756972822746,0.015541649346686,0.0199413442081051,0.00874817275304363,0.000378823850620048,2.14072643718093e-05,6.73202309546993e-06,1.75367818515139e-05,0.00482602175488259,0.00494228611854608,0.00224434222369736,0.000242617124085844,0.103361030038709,0.0582789354751617,0.0143934277309253,0.00259867084457725,0.00186219474825987,0.00335207784044316,0.0500600773512462,0.0516921312531347,0.0321072330740626,0.0122182877769793,0.0397964413400257,0.0175105635588095,0.000755901560246555,4.26013782795088e-05,1.33986199690975e-05,3.50837280812217e-05,0.00960807380136095,0.00983990396909042,0.00449653862863658,0.000482942909428601,0.152647455457773,0.0749980909794747,0.0145971428604518,0.00236431949256893,0.00264533177955716,0.0052088682858016,0.0446732460155479,0.0498645655742882,0.0418691613929934,0.0119011447661074,1,0.0384736328760358,0.100541458249278,0.0700410967115443,0.0560187561428348,0.00412418033007944,0.00689807059581851,0.0420049823863831,0.0347139001807163,0.0791147537326497,0.0246966623804945,0.00148737717594265,0.0101155618374523,0.00492861554898846,0.00314085088731777,1.70494373924886e-05,4.78175234037597e-05,0.00177328465593163,0.00121017744270271,0.00627350843589617,0.000612029247524034,0.0316130460476641,0.0744739198523088,0.0574651324593023,0.0443304894830122,0.00246966930715976,0.0050815587140223,0.0303229698394413,0.029331298362389,0.059829229062259,0.0178915879934932,0.00296005810639014,0.0201731978184995,0.00980972080700456,0.00626308691171244,3.39725463593943e-05,9.5156484735897e-05,0.0035286765259697,0.00240915715914265,0.0125011164102229,0.00121889144545689,0.029866274517363,0.1064264680523,0.0635910427864338,0.0613181037058545,0.00285695445254908,0.00700910385076682,0.030276277460332,0.0172303435956565,0.0794178651962017,0.0232879019574193,1
0.00319207120427683,0.00776245827931762,0.0212022485274455,0.000276985383494903,0.000782368657812032,0.000379870361342109,0.0188199088698994,0.00927052990579247,0.0253963046918301,0.00776348161491695,1.02322091794255e-05,6.02910136146385e-05,0.000448377572075299,7.65599872032977e-08,6.14321050031695e-07,1.44414651851768e-07,0.00035415501810163,8.637047477199e-05,0.000644162366574967,6.05654643015916e-05,0.00239274061253116,0.00519717749130784,0.0157660108898432,0.000157104596630705,0.000458247259658987,0.000203756632035912,0.0140055574757056,0.00766196886304595,0.0208313858539693,0.00638574793816927,2.03668208426054e-05,0.00012023601635146,0.000895663461594995,1.52646317068115e-07,1.22335000229137e-06,2.86957719604326e-07,0.000706567256277704,0.000171880831721634,0.0012858807332237,0.000120529629506902,0.00171169825614789,0.00669526362379057,0.0169345067545606,0.000177902930549411,0.000213557127617355,0.000216544857866889,0.012428605344335,0.00833252885695595,0.0251182074696894,0.0064736707147258,0,0.0116074618408057,0.00188905120263901,0.00216178190348552,0.000359289443769195,0.000770734886275262,0.000413488448886095,0.0210897468597752,0.0151655589485822,0.00181442515872362,0.00372779597899321,0.000133813254669445,3.5824499614476e-06,4.6035802810004e-06,1.28864481035185e-07,5.96854863659218e-07,1.68620993547666e-07,0.000446848440242909,0.000229500950204386,3.23811150078662e-06,1.39645199535407e-05,0.0092956309862136,0.0013612535942905,0.00153869498840622,0.000224346002752632,0.000447556464444794,0.000284449326510916,0.0167319372397402,0.0119571782723187,0.00130804062322538,0.00262492803081288,0.000267877137466898,7.13283836177761e-06,9.25379269382483e-06,2.56980866431686e-07,1.18760188434218e-06,3.38449599801591e-07,0.000889364772987351,0.000458342432026024,6.51386288588703e-06,2.77900969822362e-05,0.0130649345211954,0.00210552685779515,0.00229605193595383,0.000318221784376025,0.000215387828373031,0.000391880401274473,0.0120035064264136,0.00874747548505277,0.00207661254014891,0.00386959144873207,0,0.0192324754437443,0.00806969265157526,0.0110287974940945,0.00619540886029513,0.000664332126089933,0.000604072386549424,0.0101002024751843,0.0215892354959617,0.0064346380796131,0.0108858048633816,0.000371371880983687,6.39871746512606e-05,0.000121659631411611,3.84131542886268e-05,4.43537534158383e-07,3.5772327758299e-07,0.000101964346448362,0.000468372375564045,4.1002208793336e-05,0.000118845105510949,0.0150165665511677,0.00563334048351277,0.00768190479695838,0.00432294451389403,0.000380339632747482,0.000435132953862983,0.0079496690941802,0.017990764146308,0.00443069819884829,0.00857365280500203,0.000739400766364723,0.000128786138978319,0.000242673076301596,7.66033537684816e-05,8.82656272257224e-07,7.20544335212921e-07,0.000203445198156792,0.000932071874890113,8.22003876824485e-05,0.000236751233107678,0.0108134543597145,0.00896801582042118,0.0123053052187937,0.00691232481525159,0.000192580173376703,0.000627615202749864,0.00510431996079502,0.0130763496915485,0.00713695813986407,0.00715587736831688,0
0.00416404466317983,0.00479303465809352,0.00352900513186117,0.00039626153192752,0.000680582563914993,0.000327405533876703,0.0143693467170498,0.00699596484710223,0.0128556562229916,0.00529703716721736,1.74132304017134e-05,2.30521095448952e-05,1.24672373967476e-05,1.57808887387966e-07,4.6545511014663e-07,1.07730455564053e-07,0.000206788326226911,4.91878685265239e-05,0.000165708477445091,2.79581094797054e-05,0.00287516989354926,0.00126917684720925,0.00197460194502209,0.000174485951721312,0.000390407490307138,0.000115884615342503,0.0111764589631653,0.00555558701849427,0.00676472117947995,0.00396044901605176,3.46644367971549e-05,4.5909991938342e-05,2.48586904701681e-05,3.13761919477564e-07,9.23888364383263e-07,2.14386176623004e-07,0.000412203517048734,9.78753385378096e-05,0.000330147381116401,5.58571253316789e-05,0.00176637248138091,0.00163708192066248,0.00124605423026037,0.000102811719086975,0.000212169235074744,6.67902306601669e-05,0.00805132319213303,0.0041612534187508,0.00544877871442132,0.00343230748680168,1,0.00322992950570851,0.000106024642188278,0.000464393084699963,0.00032711728378619,0.00072152030850523,1.93712561727284e-05,0.0143839565270051,0.0161582059798577,0.000107787702857964,0.000297562764562246,1.04545256807132e-05,1.12975984226556e-08,2.16712020434029e-07,1.07543356632063e-07,5.23205115986041e-07,3.65385691677719e-10,0.000207936071882237,0.000262087794701666,1.13347575471499e-08,8.88386432409944e-08,0.00214151616806354,7.47620055763313e-05,0.000223746238930538,0.000122098572583026,0.000396840815587739,1.35668021751828e-05,0.011190578380262,0.0131944326530961,7.64563273899067e-05,0.000177214366011701,2.08340452086681e-05,2.24815897558565e-08,4.31289394028025e-07,2.12906311018774e-07,1.02339986130551e-06,7.38804246693397e-10,0.000413684972738951,0.000521859052451349,2.28962531726343e-08,1.76627959001e-07,0.00162414713879875,0.000117199639188231,0.000126762187952061,6.64990322584732e-05,0.000234706983618584,2.1337731957703e-05,0.00799537591883933,0.0096950314400193,0.000119606594371959,0.000217247027785023,1,0.0176093045116478,0.0793901576984552,0.021023595998813,0.030588375741489,0.0132330546143341,0.00479777734158058,0.0310501995187557,0.0421420944952346,0.0684254119767075,0.018671233547419,0.000311517437650294,0.00624559077457084,0.000444205173709587,0.000940324858428978,0.000175692123915067,2.31265442350318e-05,0.000967927265596949,0.00178071526015018,0.0046549816529648,0.000348575379400063,0.0139213443074731,0.0272959226844608,0.0096472533252145,0.0144002683651266,0.00677150237594766,0.00233455793533558,0.0182238606986996,0.0258877981121293,0.0282066214180544,0.0108483798717251,0.000620029063620827,0.0125169375746305,0.000883762214401352,0.00187107549950252,0.000349926737478295,4.6024361682999e-05,0.00192707772336862,0.00354741353873242,0.00931352152582172,0.000695443188745444,0.00982487250418054,0.0329774347455859,0.0119757543688336,0.0137112142286283,0.00775217527300524,0.00225336156084056,0.0168376325444705,0.0229692250074473,0.0254103580840037,0.0102397103262286,1
0.00954643557350078,0.091994734820112,0.00789366974478779,0.00584890691469105,0.00295687570284429,0.000881517247415141,0.0346640198562747,0.0159657722175609,0.0489659555221579,0.011748313271742,9.15636015098543e-05,0.00850327797202347,6.26037077778655e-05,3.43787178709796e-05,8.7808539918372e-06,7.80884964269689e-07,0.00120494299924269,0.000256146770800701,0.00240957698444356,0.000138716237415035,0.00743333946702234,0.0662089963691156,0.00574450851977085,0.00400054566888396,0.0018725825390701,0.000458512350143594,0.0271030888378091,0.0125268079410773,0.036718474547437,0.00874506911310848,0.000182228157264669,0.0169237048136408,0.000124600226674131,6.84142442682139e-05,1.74695766188763e-05,1.55381688308332e-06,0.00240034166121109,0.000509674371680083,0.00479513736022315,0.000276044488946164,0.00638625945941273,0.0559163479554018,0.00557004490855105,0.00279512172826374,0.00143737482029066,0.000348602914619181,0.0156177251391535,0.0127636199745962,0.030938854075392,0.00575108163103052,1,0.0680986113133506,0.0566811160928899,0.0396317661393391,0.0213284860134043,0.0159069305693271,0.00477097450203666,0.0550747911841484,0.0992208156466601,0.0498377896636992,0.020923178180354,0.00466048701495271,0.00322101537980948,0.00156794151168269,0.000455383537184664,0.000253821674395705,2.28576990996152e-05,0.00304652181025944,0.0098166299767079,0.00249625211333714,0.000437667479003806,0.0390587717122388,0.0390785364358618,0.0217920516170528,0.011237048936609,0.00759376932877324,0.00232645016985863,0.0418400684360576,0.0575668748805984,0.035094852713825,0.01540169872311,0.00927460516348566,0.00641728030558707,0.00313066976728614,0.000907975017047481,0.000505578674668603,4.55055592934876e-05,0.00606449466436161,0.0196120097514718,0.0049675470233247,0.000873247509502478,0.0417466913211244,0.0411078251530286,0.0249339081985083,0.0139613659749562,0.0112023484121052,0.00321458668246897,0.0327416730740019,0.0580844489307639,0.0268575096063872,0.0125632587992542,1,0.0680442991612744,0.125959970010678,0.164690471885569,0.0381053213756611,0.0167707371616332,0.0190969024870051,0.0967553858552044,0.0843796196116958,0.150402613164068,0.0298680907406,0.00465132066087389,0.0159108695896782,0.0272452979522853,0.00145769661797598,0.000281031851676436,0.000366111530627642,0.00940849999862828,0.00714484163264514,0.0226960277524179,0.00089587710165932,0.0540036874378357,0.0972956945409527,0.132635259086993,0.0297156343770288,0.013594830453187,0.0147553779993362,0.0758355875893637,0.0706070217150589,0.115764630077961,0.0231442453689429,0.0092579077405057,0.0316972138279895,0.0542286639970705,0.00290236540647404,0.000560859192992703,0.000728970247617812,0.018720800534364,0.0142288553628435,0.0452025359675502,0.00178340980005575,0.0383202388928206,0.134643561453094,0.0831505171714343,0.0228306833143161,0.015245693672295,0.0145129399898476,0.0725099839474561,0.0685101665938319,0.120477718879705,0.0246808582073145,1
0.00633685779714864,0.0503819556214452,0.0154641262143108,0.00208057779087795,0.000915275365203182,0.000124585917634722,0.0363851627829226,0.0110266398297908,0.0570518903247765,0.0298135140079048,4.03502592355491e-05,0.00255051726465192,0.000240238367006923,4.34817787605822e-06,8.36025685195826e-07,1.5461154180349e-08,0.00133020078655108,0.000122159509038807,0.00326631424714573,0.000891714000731762,0.00484587956113618,0.0358435858575328,0.0113530131566092,0.00153215258997034,0.000663869869484993,8.839940097185e-05,0.0303928000682625,0.00896536987139022,0.0448399185257079,0.0208882046934003,8.03042711711061e-05,0.00507608597243604,0.000478175851965107,8.65523729117651e-06,1.66868431479971e-06,3.09049912258269e-08,0.0026474297179414,0.000243121383191435,0.00650465758633375,0.00177605433248734,0.00420715113857409,0.0342887976084712,0.0108757917294389,0.00226838152332745,0.00082107182041232,0.000141951238120496,0.0253500912650194,0.00553618942406519,0.0376568307907511,0.0199532622602567,1,0.0476003139842213,0.031944229054596,0.0303619156653134,0.0144139860040017,0.00960645865432236,0.00288168957000844,0.0690584508419087,0.0939771269864344,0.0108666112878424,0.0190672715695408,0.00227694501587155,0.00101916302870068,0.000917497560066191,0.000207225641082975,9.22890291489628e-05,8.32461307230853e-06,0.00479015494339323,0.0088157958491797,0.000118651657719111,0.000364176341802664,0.033378958103909,0.018908678488067,0.0201817854065964,0.00991388601991454,0.00695937630972901,0.00208098417797055,0.0474256601749063,0.0700779735096583,0.00631937045464189,0.0147900815679868,0.00453117146858975,0.00203447021722123,0.0018347273413085,0.000413918276251683,0.000184108598251664,1.65858242113748e-05,0.00953518831263444,0.0176034170173799,0.000236126968045227,0.000725915215681763,0.0293335372377876,0.0203021938854859,0.03022476191111,0.0157159566806665,0.0108616131092992,0.00311833534487002,0.0545014856728991,0.0900575367313875,0.00783404503780371,0.0179602073790788,1,0.058507540309879,0.0810525574227074,0.128756558317959,0.0735823440164359,0.00920869073777275,0.00956617862274876,0.0492697365057639,0.0512968565362353,0.0515677826924305,0.0248747070635872,0.00342648058568982,0.00659793562424813,0.01666099041754,0.00543002763934142,8.47246028920521e-05,9.16605380686547e-05,0.00243924078414099,0.00264453177533526,0.00267243174142235,0.000619244918890048,0.0507977396135249,0.0614274277875975,0.0997157267968675,0.0602514409423923,0.00539938618077633,0.00753001567823234,0.0394357894642712,0.0432653978074623,0.0442419985871664,0.0193222188175105,0.00683245674142209,0.0131343387412491,0.0331543463144233,0.0108172346852814,0.000169085070754702,0.000182704036263022,0.00485454550293666,0.00526267604735032,0.00531829406712704,0.00123487082719451,0.0493648820622433,0.0612489081642091,0.0868867449851406,0.0699498037642754,0.00460561010667589,0.0106400011010497,0.0557531736570363,0.0439809419002265,0.0461296508121638,0.0192305562727965,1
0.00232274185161069,0.00584963832456192,0.00356421977208423,0.000264825418201047,0.00055965632598092,7.42422713759963e-06,0.0198964121114898,0.00770827824955207,0.0144079553850231,0.0109775214322784,5.4217930902411e-06,3.36354182156583e-05,1.26585961250539e-05,7.04693347302826e-08,3.14783651935534e-07,5.47271370852768e-11,0.000396577390348632,5.96561851231911e-05,0.000205528983782593,0.000119501412878224,0.00148687653541085,0.00429906709841427,0.00211747178427509,0.000139901097852948,0.000274710883696464,5.09451026698589e-06,0.0158898560418289,0.00620932973907287,0.00954147097408131,0.00804410629661132,1.07868985197174e-05,6.76853848961316e-05,2.52929270361507e-05,1.39942967279724e-07,6.25326262376547e-07,1.095704649026e-10,0.000790461619661612,0.000118760146054813,0.000412081521839761,0.000239403974135686,0.00135429337038977,0.00669891454033652,0.00253712919471379,0.000144303203422732,0.000154247024041755,8.22010006991582e-06,0.0115932127041851,0.00496154368032154,0.00822417440130902,0.00905192166807268,0,0.00506049886121794,0.0015793193567574,0.00229972816770034,0.00103304820837238,0.000827968143795814,0.000181561551405128,0.0270692852977126,0.0168020264635553,0.000182474065485648,0.00351478503166778,2.57314976865753e-05,2.43856779472787e-06,5.25562560115147e-06,1.06641106710065e-06,6.88354184114229e-07,3.30630859503743e-08,0.000736114300240096,0.000281377607780007,3.27814361734985e-08,1.2264125892447e-05,0.00413452602894693,0.0011556781147483,0.00163182256282987,0.000694410621675369,0.00055159539891732,0.000130095958300635,0.0209129344693452,0.0137650232902502,0.000130934554455738,0.00255096821618177,5.12113184694001e-05,4.92038075085344e-06,1.05168259952414e-05,2.12769210010312e-06,1.37039592794238e-06,6.58603454067217e-08,0.00146517067060158,0.00056227489799465,6.59134026313932e-08,2.45542352093478e-05,0.00389355169311077,0.00175748662565497,0.002429454269071,0.00111519563142726,0.000774211502558726,0.000200980123079051,0.0265541330789963,0.00878303170834899,0.000199530841940994,0.00371942304704724,0,0.03041664591303,0.0076047813074257,0.0166197574775475,0.0113987801919414,0.000857255210618824,0.00127378632356524,0.0171001297669635,0.0266265012205823,0.00726284179465749,0.0114236447601972,0.000925361237026496,5.65546061590686e-05,0.000270455314095245,0.00012723961879171,7.38048811934456e-07,1.60484285431129e-06,0.000293872641509542,0.000711990237613299,5.15811888803789e-05,0.000129567494474331,0.0244152597646903,0.00546005378735891,0.0119765779017311,0.0082186686251991,0.000579871964083869,0.000902122282120204,0.0131880791545313,0.0197702235147132,0.00521162243590875,0.00832898368709131,0.00184585433686275,0.000114104256742421,0.000545306834254306,0.000256529742690466,1.46245926135435e-06,3.21880144503153e-06,0.000584812883669149,0.00141737944527922,0.000104071186481307,0.00025941930335991,0.0225248718555818,0.00847163154108411,0.0187669621557959,0.0127929446347996,0.000343553700694008,0.00140264356888989,0.0108756987333257,0.017893739784099,0.00810920809971792,0.00768560725428031,0
0.00212383846994266,0.000335690541935186,0.000811054345887754,0.000315723037274835,0.000678089688812644,0.000399913875528569,0.0115293533875413,0.00847435995057617,0.00345687774834347,0.00810454612799073,4.53289770168133e-06,1.10551796417372e-07,6.61106414221742e-07,1.00180673958467e-07,4.62112215243147e-07,1.60734516458354e-07,0.000132991577986005,7.21688949326387e-05,1.20090835041943e-05,6.59942448268472e-05,0.00145168876424831,0.000241887293619037,0.000475163125494655,8.92870308580517e-05,0.000381493875074831,0.00015428207719487,0.0093287747730333,0.00646103167272079,0.00228385336636335,0.00670152353854004,9.02054310497782e-06,2.22685633065728e-07,1.31304314495098e-06,1.98294156399723e-07,9.13090730779682e-07,3.17371298946131e-07,0.000265249591434833,0.000143620595015549,2.38984791708769e-05,0.000131342556994556,0.00112941814057947,0.00037217286145524,0.00024186527099699,7.22399453492708e-05,0.000248259127867611,9.56468640879433e-05,0.00475377045066376,0.00592437402917017,0.00148357393991362,0.00432650146144266,0,0.00350193621885108,8.97539207469097e-05,0.000643674263111366,0.000332797551236948,0.000641572240148138,9.93606828150134e-06,0.0161005877205251,0.0124254347205481,9.25056627620473e-06,0.000212929169771932,1.23122412900054e-05,7.85615104944691e-09,4.15747431475835e-07,1.11283395192442e-07,4.13642905731698e-07,9.92212165290656e-11,0.000260478397604112,0.000154988034723156,8.52810146341539e-11,4.489429672456e-08,0.00266826296037271,6.37138673107383e-05,0.000365788518697219,0.000136594800058985,0.000323393351459249,7.00228715497267e-06,0.0134615425359915,0.0103929720721704,6.70372899754386e-06,0.0001546377366161,2.45142161612592e-05,1.58726322662695e-08,8.23601518766881e-07,2.20353224287197e-07,8.23173875543892e-07,1.97444013553157e-10,0.000518342362988842,0.000308570374375704,1.7042349289057e-10,9.00071297859552e-08,0.00174983861972734,9.96320934063204e-05,0.000177760768151222,9.08324104412662e-05,0.00021233235808918,1.09829014254667e-05,0.0100721578885014,0.00698913751931548,1.02359181670269e-05,0.000235867635759251,0,0.0181969083403798,0.0283957490532913,0.0101463809168587,0.00737070641762068,0.0149646234187092,0.00522733815186457,0.0169417674481822,0.0258090458572837,0.0160590596782111,0.0103911433442654,0.000332690498566674,0.000810160857529865,0.000102843161247402,5.44902030963806e-05,0.000222725215454552,2.71505266666184e-05,0.000284631285713364,0.000666765080746334,0.000258976872947203,0.000108518447822995,0.0146809087278578,0.00788668973671427,0.0035724004965957,0.00276263649211497,0.00527851140199887,0.00184502224693867,0.0106013507407963,0.0198069368870896,0.00444685835460943,0.00808725150102871,0.000662154445268557,0.00161208338627374,0.000205272993273042,0.000108545065162806,0.000445545084249761,5.43385784842305e-05,0.000570221802809357,0.00132948676079091,0.000515541873750843,0.000215932179329655,0.00838422616136163,0.0112791610258251,0.00358032942163846,0.00327269935136035,0.00694913319366606,0.00247775587375173,0.00704779259919155,0.016409450252432,0.00643920329076566,0.00823206136299704,0
0.0102263765581534,0.0812730266687889,0.0384271168840346,0.020762992056967,0.00704418256893452,0.00158073858714512,0.0355070568481905,0.0122543783379025,0.0629821724372205,0.0553314875606263,0.000104972122930113,0.00663580595289523,0.00148136065953176,0.000433230282354423,4.98695956592865e-05,2.51126650226298e-06,0.00126690853391959,0.000150907020245969,0.0039866097723901,0.00307191457209439,0.00793472868656058,0.0601925734380382,0.0295814014479894,0.0158157280853758,0.0040372966685593,0.000837891171185888,0.0247214312538651,0.0102589657832835,0.0496492919528088,0.0426872850321914,0.000209022825533419,0.0132078942957021,0.00295058377514903,0.000862158589768987,9.92405553126371e-05,4.9970609000012e-06,0.00252120576627035,0.000300314486783191,0.00793339037480133,0.0061180246205116,0.00531371959554189,0.0438108597503555,0.0170508953692103,0.0124663207046852,0.00338495982452458,0.000591976468048483,0.0179030428818216,0.0072285863745634,0.0314822500710479,0.0471188169654841,1,0.18426205072239,0.101632765157404,0.0338771514004974,0.0122998595873847,0.00673608114914713,0.00815832710067638,0.0760144414728888,0.0512255130007602,0.234465613284444,0.0298634545042752,0.0336925003933269,0.01033660810802,0.00114747198952301,0.000151868745356642,4.55000432317731e-05,6.60869517802329e-05,0.00579648409069154,0.0026360953629191,0.0542671550008019,0.000887504502675227,0.0845973233716783,0.0543452700226875,0.0164984685922258,0.00524164720576085,0.00292458059689521,0.00295097388552766,0.0561143196038096,0.0341473688998175,0.0929336992061362,0.0175660694027412,0.0674758801142715,0.0206133118045921,0.00228929637584588,0.000302392346947116,9.06472167776672e-05,0.000132314471773935,0.0115456969698032,0.00524696806828555,0.108969537513871,0.00177488688961802,0.102517195218827,0.0469280222292871,0.0164265580194819,0.00638045823507812,0.00309597991190021,0.00340078407069155,0.0517442251581964,0.0275926240854817,0.117194936959619,0.0128070966380554,1,0.0870277399542937,0.144972115346055,0.262764009341721,0.0437603229027935,0.0181471598491556,0.0241797632753422,0.109724078834315,0.062672768842008,0.204458851205938,0.0314893216339778,0.00760807285720954,0.0211225046624408,0.0693866295993375,0.00192348777340877,0.000327444862081291,0.000585030952790577,0.012085343550802,0.00393725452685068,0.0420121219950827,0.00099653955278454,0.0677556261699642,0.117192540753988,0.189346719574103,0.037307207471134,0.0148622138665986,0.0202368207068795,0.0902547477820169,0.0515999697540755,0.13707478099143,0.0247064253347424,0.0151436077404318,0.0420333642438058,0.138080966416357,0.0038287653365102,0.000655076317014648,0.00116663807176402,0.0240624628595763,0.00784531369845103,0.0836041843701893,0.00198312355601599,0.0512308830540118,0.116295573009872,0.143889084249314,0.0378997878068221,0.0142678343084821,0.0160209216857627,0.0573642213489419,0.0434452549652951,0.127477574458505,0.0224020991662402,1
0.0113079297254525,0.069657441437918,0.0767532083793205,0.0080550318689066,0.00330360153871861,0.000430839046448883,0.0387858956389205,0.0176193687768334,0.120307061933335,0.0389305086702791,0.000128328181718436,0.0048519882577375,0.00591568387519736,6.51711768017516e-05,1.09681613464955e-05,1.86527162383768e-07,0.00151172354024611,0.000311999418339281,0.0145462673043924,0.00151589265965199,0.0087252449160363,0.0533376487723377,0.060945102488681,0.00544583651762301,0.0023612195427605,0.00029712113991319,0.0322587483883146,0.0133970622383229,0.0890890938766309,0.0297597192644236,0.000255529336097874,0.00967958778552131,0.0117771088113169,0.000129728841524898,2.18248688594415e-05,3.70838927817503e-07,0.0030082922148907,0.000620816883989804,0.0289473117832169,0.00302387873885912,0.00697900436590781,0.0358114345422608,0.047873252768952,0.00660222852164041,0.0034914907997619,0.000396009873235025,0.01949953856526,0.0127449830365641,0.0631131280642544,0.026294529686813,1,0.349635056061042,0.179811188755754,0.0441485991388366,0.0172331670159788,0.0102022955102745,0.013302592462003,0.0887703631125577,0.0796366442291944,0.309407769752852,0.0437678084098418,0.122315599356958,0.0324825309505748,0.0019562385658652,0.000298445518656025,0.000104546789446071,0.000177087790802946,0.00791097316948598,0.00637248019852401,0.0952215242827534,0.00191493817260058,0.287808493102574,0.147640702335842,0.0328972026761874,0.0126991351543304,0.00626655297694214,0.00743749478746589,0.0602397398126102,0.0625970657844809,0.221080619678723,0.0335829531010104,0.243948260233599,0.0646516372203558,0.0038955546099675,0.000593935320810185,0.000208110868822784,0.000353159038899793,0.0157515041135639,0.0126825797191584,0.190478520412265,0.00382094265985954,0.356267081324319,0.187648447895566,0.0384830873851407,0.0132336228330179,0.00818712232166825,0.00796002748450008,0.0701554112169333,0.0595278795918356,0.30523128153558,0.0431822666627591,1,0.0694359145678183,0.114287385945724,0.135245831620122,0.0864114129696422,0.0107044859854518,0.012326707370552,0.0612345233328039,0.0554950275379384,0.110471803192182,0.021431811132225,0.00484429795347325,0.0131178976323056,0.0183827266332763,0.00749581828883722,0.000115091005530661,0.000151861973816957,0.00376849756170035,0.0030950607344178,0.0122478013104252,0.000461526578033163,0.0588328026912808,0.0931912132304638,0.0928056581997694,0.0694200902631649,0.00795722000637842,0.00891498605434287,0.0514363789748379,0.04372892104472,0.0901349228241733,0.0163881259443294,0.00964135689704402,0.0261138986408451,0.0365815322039232,0.0149252690882887,0.00022910147805419,0.000303045305509549,0.00749914918449235,0.00615926571683074,0.0243904401151641,0.000918535675482389,0.07651546641554,0.104315591661373,0.0834523119524214,0.0679434873988207,0.00731323355396884,0.0123843877489261,0.0609864076131553,0.0425657583369824,0.106975979724842,0.0139785178220787,1
0.00500480823278239,0.0425253406881897,0.0407629685347489,0.000805869491849867,0.000688009342571828,0.000233029671126367,0.0231893135281309,0.00998904856333628,0.0831084871710485,0.0177562964634234,2.51735918215235e-05,0.00181075082932141,0.00166982005227521,6.52664530105463e-07,4.74432103321505e-07,5.45748930470102e-08,0.000540275685264351,0.000100281367340544,0.00694014779667805,0.000316646001512116,0.00362211523613673,0.0340011460176857,0.0332702436688943,0.00054560574292897,0.000398032920067258,8.05638032918186e-05,0.0189230460637488,0.00800993025136188,0.0657996890501568,0.0137256225101151,5.00876976614664e-05,0.00361009772576396,0.00332242026567237,1.29807676093862e-06,9.40768903445447e-07,1.08333396015831e-07,0.00107531573144029,0.000199557310905063,0.0138124655926143,0.000630333921462831,0.00235866290126777,0.0383813379931766,0.026664857161444,0.000818335655044958,0.000269516922381984,4.66085640096156e-05,0.0155995069237247,0.00682523544155432,0.0671760331474877,0.0130701625737852,0,0.045831630703038,0.0270530531355971,0.00524572677541302,0.00181673839386544,0.000569892013198604,0.000201136957223341,0.02035385983488,0.0256862933712809,0.0264130404459016,0.00622940464744672,0.00210589022653621,0.000726832565063449,2.70644801760021e-05,3.26344416952864e-06,3.21955372205582e-07,4.00585072168416e-08,0.000416361389159667,0.00066297778184795,0.000701041348842775,3.89198718486111e-05,0.0319758937813547,0.017666220558384,0.00378508864822494,0.00127076855757144,0.000381022441685358,0.000139012533929195,0.0149565705169067,0.0192135830130344,0.0148198268194778,0.00374044299852268,0.00419577965641509,0.00145506440901125,5.4445674616205e-05,6.54700052000028e-06,6.44886476272777e-07,8.0313000063387e-08,0.000828557167401732,0.00131937392221522,0.00139518412675152,7.75256046005924e-05,0.0512642496200312,0.0284486480707153,0.00588359226477228,0.00200401319822293,0.000459951864499045,0.000222466603562192,0.0149864360649059,0.0148279415874441,0.017378864316244,0.00339274759928518,0,0.0300815121887851,0.0206118360453683,0.0156333792531158,0.0169351958468392,0.00079812261563186,0.000751093406944055,0.0182946476264929,0.0336403822067992,0.0142750477708115,0.00879827598887691,0.000909422510361514,0.00041532922223868,0.000241818751061975,0.000284346012461428,6.33343951662747e-07,5.52386635619701e-07,0.000333683070971075,0.00113722547740122,0.000199229590650808,7.77475175524736e-05,0.0240762630710841,0.014802786461407,0.0118047414330414,0.0120397906455276,0.0005346979202859,0.000524203132105517,0.0143852583783803,0.0278868634052215,0.0101694038701328,0.00707988317968704,0.00180977244210728,0.000838100361155125,0.000485010868960822,0.00056972280733407,1.26633366562525e-06,1.11353443027182e-06,0.000666703086814703,0.00226320895179766,0.000402010152279005,0.000154768058064226,0.0300821105507055,0.0231319524199935,0.0186137856021471,0.0193357557392937,0.000686706854467436,0.000783248614941195,0.0124472959936748,0.031338142244624,0.0159936513200165,0.00530682949096269,0
0.00424272140613124,0.00921088834925415,0.0529524372393212,0.00033013481813578,0.000512760559183216,9.98519018654069e-06,0.0234156736106377,0.00781617618672624,0.0585646139414341,0.00712148572046985,1.80680421986618e-05,8.48604145197911e-05,0.00281686788665059,1.09530701049579e-07,2.64153637105904e-07,9.97974295133009e-11,0.000551047851181266,6.13600133188517e-05,0.00344541431376317,5.09652950710299e-05,0.00333638008680486,0.00677590121191246,0.0423936560549127,0.000116703345652731,0.000223883597090014,7.30277782706354e-06,0.0173098973016121,0.00617495146518392,0.0453024754869906,0.0057215143838131,3.59752695949575e-05,0.000169245189202754,0.00560655393169357,2.17971895088434e-07,5.25491766384081e-07,1.98997282382948e-10,0.00109658222393213,0.000122142503507006,0.00685798530316123,0.000101420316021078,0.00219253097059206,0.0103838302494231,0.0250042225370179,7.23732308318105e-05,0.000159399524934473,1.11626258338582e-05,0.0143224551032348,0.00443956637056603,0.0304591966269697,0.00442788942678872,0,0.00321755586921513,0.00173376595947846,0.000653399169459821,0.000254446653934595,0.000716141588763488,0.000229027674477495,0.00513275422289843,0.0106084150420117,0.00129923881240088,0.000284838644389868,1.03718809243234e-05,2.96359715254314e-06,4.26929745405711e-07,6.490495085485e-08,5.1537896788555e-07,5.2717106158647e-08,2.64775194483499e-05,0.000112977972474425,1.66598494342667e-06,8.01866897399939e-08,0.00249286047520043,0.0012002428672875,0.00043425365087053,0.000120898199255245,0.000399900896973982,5.30492981506225e-05,0.00403564477490363,0.0084060979518041,0.000879058518248021,0.00019617137779167,2.0669243852412e-05,5.95465196316866e-06,8.51481676045592e-07,1.29032876865601e-07,1.02565702507533e-06,1.04623046808627e-07,5.26900960792872e-05,0.000224948836478593,3.34514573716925e-06,1.60916418966643e-07,0.003258500499009,0.00192336320981938,0.000250918499938311,0.000121877506568271,0.000207011263700867,3.68868072351244e-05,0.00388921127759073,0.00843181173496223,0.00140473731111658,0.000315400949696332,0,0.0392882096378018,0.0011134868397998,0.00122897173936537,0.00101653933806766,0.000667344741713433,4.49644967698685e-05,0.0121002684984089,0.0238285713773973,0.000751999264410951,0.00761487148964775,0.00154847558478089,1.214955985671e-06,1.48361213943115e-06,1.01971257319339e-06,4.47369414231333e-07,1.98131055957981e-09,0.000147057244956263,0.000569460346069549,5.51263721195271e-07,5.80658764467397e-05,0.0236662654446178,0.00081251781683469,0.000843343743829864,0.000714190114716087,0.000352279614410133,3.25963122917478e-05,0.00981874116103522,0.0188002442292008,0.000534440269296246,0.00614562538109716,0.00308428550446088,2.44854055272466e-06,2.98624867884891e-06,2.04751866456462e-06,8.88492027719355e-07,3.99320609177659e-09,0.000292732949293513,0.00113432043892697,1.11401029361897e-06,0.000115742302197817,0.022487470088277,0.00121064680657299,0.00121707195402981,0.00109669952961436,0.000216736655183861,5.09628007512058e-05,0.00708034147985823,0.0149215980727666,0.000834442624266384,0.00476950365649717,0
0.0150435795097697,0.127593522015704,0.0699063187100216,0.0236465701429871,0.00751775008150784,0.00258510336528466,0.0608029832962187,0.0155676317092249,0.090307154635945,0.0410991509386618,0.000226051493133684,0.0163557618935312,0.00490180937339313,0.000560157317443697,5.67823983445813e-05,6.69130943291114e-06,0.00368465447468617,0.000243267951099891,0.00816488708912778,0.00169720951549595,0.0108535940913618,0.0944205394536989,0.0548322584029318,0.0163442460450434,0.00429744584294618,0.00108342893444299,0.0385562541916182,0.0117154309949778,0.0739045878188497,0.0291479774155149,0.000451219544235948,0.0325540838406922,0.00976415476227876,0.00111649253050935,0.000112998068132862,1.33284082457252e-05,0.00736293611516703,0.000484396919770136,0.0162792974937457,0.00337785282216354,0.00966962117252523,0.0760587897979002,0.0388321550767839,0.0146092228874199,0.00448056069584168,0.00127075081645004,0.0299589569295106,0.00831908573962891,0.0408903463326698,0.0247750978896509,1,0.135998408994934,0.190227122942314,0.0337985648396966,0.00925113413159406,0.00495042796769364,0.00326090034803638,0.0647120911228636,0.116504869189372,0.0923370852081615,0.033919763923401,0.0184670181732972,0.0363028957065903,0.00113805567086125,8.5664430018473e-05,2.46294407998786e-05,1.06868356550063e-05,0.00420788901213019,0.01356266933145,0.00856872353295431,0.00115584191391212,0.0796792418206085,0.134137557473159,0.0226099536343203,0.00511517852320968,0.0028697175650569,0.00173496200201989,0.0510543614117873,0.0676630491428897,0.0670623494737694,0.0243665246656629,0.0368702291840564,0.0723077374334077,0.00227451398190669,0.000170818978178494,4.90075131685127e-05,2.1266870343596e-05,0.00837445977179467,0.0270681705427107,0.0170520101477776,0.00230055684471259,0.0721046961231313,0.144368899264888,0.0174950125400972,0.00499799170653359,0.00316760352392862,0.00183827448784318,0.0589886064193201,0.0642243108944055,0.0681575529204558,0.025319056095455,1,0.0830260148656783,0.150575024664126,0.199349755116444,0.0400610050745811,0.0225612501413568,0.0234699192447509,0.101098886567466,0.053990363530608,0.147499712744715,0.0392660715439453,0.00692317996013645,0.0227841527370937,0.039924578516433,0.00161193086894998,0.000511431476381007,0.000553605135030267,0.0102723464710796,0.00292928051692598,0.0218649721211294,0.00154747155216254,0.06036375305182,0.0946169805764531,0.143054669059184,0.0273432726868557,0.0163657104859989,0.0174230032549822,0.0764823795086095,0.0416039426933791,0.100428851934422,0.0277861715582424,0.0137809623681577,0.0453430603837347,0.0794620233897629,0.00320875424734189,0.00101781807913003,0.00110167176051762,0.0204419582469255,0.00582955444873756,0.0435118026616241,0.00308132094493213,0.0476365330864558,0.110279684462385,0.118501104185509,0.0256288145660501,0.0147771043560462,0.0185525472016755,0.0602627072862334,0.0318407914192184,0.0986891110876672,0.0289105765941739,1
0.0159311021319793,0.07269336565532,0.0805962853462984,0.0235284160167695,0.011184281506267,0.00234701468772183,0.0580241121875015,0.0154060088203208,0.142205354309572,0.0446018143559681,0.000253853872377011,0.00529835758089811,0.00651200401186713,0.000554043454996435,0.000125668316017889,5.50646682786087e-06,0.00333831189484645,0.000238479609188071,0.0202926901467937,0.00199653025856926,0.0111616051061866,0.0542874057671528,0.062993347510514,0.015572379410401,0.00771119868394746,0.00156526485591078,0.0448782123111852,0.012197165340469,0.115543009202642,0.0318671320115542,0.000506383564406327,0.010556189195967,0.012975044548674,0.00110484321072858,0.000250100295265239,1.09871789113956e-05,0.00668835793410136,0.000474553421472603,0.0404134941646649,0.00397582957084957,0.011784463474896,0.0378810061307475,0.0456675151808983,0.0152237097839498,0.00763819377846518,0.00165069953470051,0.0510012903894846,0.010463920568627,0.0824881628727812,0.0268652044157908,1,0.135425754428276,0.103804304830754,0.0411136736017779,0.00969586272193481,0.00316956208969911,0.00179650028586449,0.0190678233623376,0.112531622121023,0.0412191843627496,0.018959063840892,0.0183087863324809,0.0107910492254263,0.00169040742885092,9.42343411389931e-05,1.0096594937536e-05,3.24349971124212e-06,0.000362993971957344,0.0126329207759546,0.00170535357905734,0.00036119144186698,0.10551612552776,0.0743161854356044,0.0288157095026688,0.00614222830809705,0.00206813228725214,0.00115340690909278,0.0147354098849996,0.0814680751742232,0.0309793308296227,0.0157183548175279,0.0365573764938905,0.0215122298662597,0.00337228076301775,0.000187770885389107,2.00918280452355e-05,6.45245841899079e-06,0.000724485591559939,0.0252331218793488,0.0033954704763796,0.000718820337134119,0.134660703959362,0.111849615774892,0.0307477835481369,0.0068104644964653,0.00205639177518298,0.00142922883781057,0.0161310897661128,0.0820240618648584,0.0204078214508779,0.0183380141919244,1,0.0814524588622718,0.0598034676134056,0.120117762873043,0.0982471964709261,0.0159095696108645,0.0195127026694608,0.119295461583972,0.0546678605109832,0.0836744882074464,0.0327490103280567,0.00666682607369849,0.00359389341668996,0.014500136819603,0.00967488538266377,0.000254158865236792,0.00038258209452604,0.01430203607185,0.00300355963588086,0.00703639422693064,0.00107509314059571,0.0637009030213044,0.0479070225986533,0.0994609220429929,0.0799408246739358,0.0127972255440536,0.013347767821952,0.0735891543760501,0.0452431228292272,0.0623732352567449,0.0193205609458174,0.0132675599082378,0.00715216271225948,0.0288539207055074,0.0192788893826103,0.000505997816011996,0.000761377732079741,0.028461918753755,0.00597711631471439,0.0140026308642855,0.00214219592181223,0.0612106926192879,0.0528566299795095,0.0569861776327469,0.0781462871273988,0.0118104997872146,0.0144203545497218,0.091058020502314,0.0510485731284846,0.0507665849487276,0.0194144828672845,1
0.00359924800511369,0.0106132090779635,0.039101553852844,0.00114735574470212,0.000970461943393542,0.000332558141092288,0.0405041748942407,0.00868801458045023,0.0602433584985116,0.0253263808805817,1.30196364411151e-05,0.000112200276921885,0.00153473284453245,1.29369010709895e-06,9.40029376706647e-07,1.1093035812332e-07,0.00164451356728035,7.58548205069602e-05,0.00364505889958865,0.000643530068035426,0.0023527487988673,0.0074700469206535,0.030436870107283,0.000813102580038868,0.000683267850955947,0.000150906390277832,0.0328084440892923,0.00702924950435771,0.047897296750869,0.0173998994966089,2.59026976698452e-05,0.000224278551854539,0.00305598224972079,2.6036327302265e-06,1.87465218848321e-06,2.20970547578395e-07,0.00327687912101835,0.000150957056678243,0.00725608912871316,0.00128166032563953,0.00160002097267559,0.0083685590353018,0.0189387721774723,0.00122865027167307,0.000627771583758758,9.2850636574921e-05,0.0348376525271313,0.00570498461012109,0.0319625685081503,0.019352876402917,0,0.0138806552098119,0.0402803718088546,0.00286140308056784,0.000754151726046321,0.000546349487116245,0.000144982176089386,0.104575588624038,0.0321035590508158,0.0267236675628347,0.0313169653941589,0.000193618368638255,0.00162550675405306,8.18338582120024e-06,5.6307649729568e-07,2.99822134816846e-07,2.07218427319792e-08,0.0109855707618168,0.00103514877393805,0.000716411326424949,0.000984115226482266,0.0103438096462254,0.0290454065080668,0.00228788415603612,0.000527490554888529,0.000302542366495114,0.000100602464672799,0.0838956200333659,0.0249210345961138,0.0169601464180612,0.02257674305144,0.000385287712508334,0.00323983152591429,1.63294515134779e-05,1.12899146530249e-06,5.96494473191344e-07,4.16375883435577e-08,0.0218666945635946,0.00206060616083835,0.00142698237319072,0.00195993399231305,0.0134131620516334,0.0261834994251082,0.00344782994413306,0.000848235495198595,0.00024329185704224,0.000161162627636504,0.0843683161059758,0.0193564674617815,0.0164915903473037,0.0247144026433592,0,0.0491843369855647,0.00872023607351035,0.0358953628369325,0.0340203113337333,0.00324125132000269,0.00211145173882148,0.018383555023511,0.0273878055734469,0.00974816779366423,0.0209298635438034,0.00243092530196848,7.57325817717728e-05,0.00128763447384273,0.00114843075942097,1.05408197526505e-05,4.41188206928797e-06,0.000339611170108229,0.000751855797574529,9.54397628994122e-05,0.000440023989736585,0.0398675712760116,0.00652408389536434,0.0277584578507437,0.024755378253505,0.00235124903373254,0.00146139811199612,0.0140919345169627,0.0216166384616189,0.00733168776494457,0.016235317463668,0.00483777583870854,0.000151393960693583,0.00256966703491062,0.00230003269310766,2.09748493881513e-05,8.84795293844927e-06,0.000675867787040207,0.00149810314827107,0.000189986989871183,0.000875821930650685,0.0404171719000689,0.00998735377724419,0.042296617269394,0.0378115650019911,0.00352576888137499,0.00235129065704204,0.0155504474719337,0.0192981824402111,0.0113440398689523,0.0189214677780227,0
0.00184548589891485,0.000524065054051353,0.0114725471941078,5.41653473036804e-05,0.000721706986198859,1.46484669137131e-05,0.0186988619975775,0.00681817446458313,0.0146768476338194,0.00637966755522071,3.42120353155748e-06,2.75692875378389e-07,0.000130817485593506,2.89030025685843e-09,5.2339853645864e-07,2.15164415247865e-10,0.000350944514891477,4.67209493789386e-05,0.0002155083636698,4.08985516592838e-05,0.00123160361356989,0.00036621681414562,0.0083897559180343,3.91573447733556e-05,0.000434837629563921,1.02636981871169e-05,0.0148153317698969,0.00576780504832568,0.0113114046735406,0.00405993377982211,6.8029932225509e-06,5.48950033252913e-07,0.000261773726494239,5.8096635835338e-09,1.03685079588742e-06,4.28654199187457e-10,0.000698828245830419,9.2963152997702e-05,0.000429839464453105,8.13912811335553e-05,0.000701704266349008,0.000471777779460509,0.0134045093670528,5.98668377617459e-05,0.000237378579494272,1.63910062536408e-05,0.0132051864923258,0.00352440514283747,0.0174390247626386,0.00362574464779195,0,0.00123577238753982,0.00322782355253953,0.000660368751365559,0.000231739236972341,0.000639117439931938,7.57511510645425e-06,0.0118664402591312,0.0165811652785455,0.000994610044293277,0.00181059282349616,1.53338842891982e-06,1.03433279933416e-05,4.35580009191556e-07,5.39711958746508e-08,4.10523224544213e-07,5.62459162298628e-11,0.000139318362231669,0.000276224601785024,9.69389328999252e-07,3.21325232447206e-06,0.000881165662932329,0.00236637212864546,0.000414350977989878,7.06142764217154e-05,0.000337193784526514,5.29905971479418e-06,0.0089105333783589,0.0136843951999639,0.000719478874779145,0.00130542799666328,3.05124998909111e-06,2.07101002977622e-05,8.69336850912128e-07,1.07123737906731e-07,8.15810098873254e-07,1.13346377063411e-10,0.000279427434207919,0.000549769406638449,1.95379026367768e-06,6.47421017663628e-06,0.00108335159364926,0.00361326225517817,0.000225851192489412,4.19456878677131e-05,0.000184390116526327,8.39959359597021e-06,0.0129900188027895,0.0127950817110457,0.00112651633011554,0.00202700268288762,0,0.0242307896136231,0.000527526022471188,0.00270605403890464,0.00184613763901153,0.000526935932768229,0.000112926435324118,0.0115550279963748,0.0203177599766912,0.000607691207444807,0.00961129363515151,0.000587619051098879,2.77818828570087e-07,7.18084608878154e-06,3.36681908012243e-06,2.78896184177453e-07,1.26102696623504e-08,0.000133868121639243,0.000413897377623232,3.71112814909587e-07,9.27881487137686e-05,0.0189943041313666,0.00038155318882867,0.00200056737570202,0.00131367948733631,0.000306279870078709,7.77677618795417e-05,0.00888346384967924,0.0164321641460502,0.000431701223117567,0.00799324258103692,0.00117168166533189,5.54699077005661e-07,1.44659443940678e-05,6.75637517804777e-06,5.55161261517134e-07,2.52992061164082e-08,0.000266711227024421,0.000824636711233148,7.38520508470746e-07,0.000184701157704574,0.0210497953618103,0.000583653864923549,0.00283062798830276,0.00200703595185702,0.000305514204852778,0.000125107896990999,0.0077669612329634,0.0112736826659383,0.000677635261528698,0.00603964018456742,0
0.00311699149686666,0.0296532558349423,0.00140547225372426,0.000462704996267212,0.000775453763710317,0.000319879989672127,0.0283572437512023,0.00727057180631748,0.0224098852152977,0.0115155118571737,9.76365423040186e-06,0.000881783743196706,1.9697742267918e-06,2.1517157371569e-07,6.04224243384733e-07,1.02819756028352e-07,0.000807101843190315,5.29473165915326e-05,0.000501912527025916,0.000132219499512415,0.00220115581718045,0.0129920942162416,0.0009786114968878,0.000216427947908149,0.000459012733546922,9.77284065257065e-05,0.020695975743402,0.00564643057296765,0.0114449633996598,0.00663253218947071,1.94301564754988e-05,0.00175664021395582,3.93434284256417e-06,4.27112895567634e-07,1.20140636342686e-06,2.04628821622768e-07,0.00160714610550653,0.000105543149071885,0.00100156044971711,0.000264164623580786,0.00142138057982443,0.0165688884046172,0.000842031049582454,0.000124953157712093,0.000263407256841613,7.32780859718916e-05,0.0140292715455965,0.00358727899542191,0.011964609997714,0.00549177132639875,1,0.0594564266461318,0.0512783988771742,0.0103188105870251,0.00372526678312787,0.00183206685969242,0.00195310135258672,0.083395215627937,0.0731201779415423,0.0694855556581618,0.0271176269381282,0.00354680071808497,0.0026352916348617,0.000106982790702592,1.38641024376932e-05,3.36831375060313e-06,3.8249209567984e-06,0.00698845910598221,0.00536734178714567,0.00484697234795265,0.000739037679507539,0.0355296492586869,0.0309118699450333,0.00580779345099361,0.00185901487747261,0.000693955794393592,0.000936342071043194,0.0537252519921572,0.0460385723738869,0.0343905177711993,0.0166498153991669,0.00706378239312698,0.00525153775236612,0.000212897761204709,2.76715836429981e-05,6.70122974993273e-06,7.61959939906683e-06,0.0139078210934622,0.010686278686775,0.0096509707244704,0.00147068898081028,0.0375713426740232,0.0340259813380772,0.00492131726000557,0.0017185477751728,0.000777888548961414,0.000764678016432386,0.0442348853182163,0.0417379370617995,0.0386767529342394,0.015505175849641,1,0.101146383071859,0.286094011253425,0.219585687197482,0.0267147021857283,0.0536593322566681,0.0381502296046581,0.0964468476800968,0.116103151734773,0.265591269487811,0.0377131254980229,0.0102614916654691,0.0822603965020968,0.0484594469991203,0.000716937109203303,0.00289346901240257,0.00146273465738004,0.00928771766885567,0.0134740274220819,0.070837862416503,0.00142349985985847,0.063658919850785,0.174113899144412,0.125445272637056,0.0153680062134564,0.0329820549561566,0.0236694125024617,0.0607248101863655,0.0671603213674592,0.15068339036333,0.0238120395232745,0.0204407497119874,0.163697716167128,0.0964343750702627,0.00142701845541455,0.0057583244923427,0.00291078556440802,0.0185422795917324,0.0268862538534388,0.14102227117057,0.00283858564034716,0.0702137841796068,0.231179641630993,0.157293886100054,0.0183232826569158,0.0357200610298643,0.0273995423178482,0.0681437415933645,0.0875030239258664,0.197731775002842,0.0295946727588611,1
0.0116245218206248,0.0655205557863089,0.0346188197970602,0.0106127757987161,0.00423208216696515,0.000456414328727875,0.0407745306893532,0.0137611088087857,0.0714308460214907,0.018397985933954,0.000135808545042375,0.00431436717935815,0.00120254060028894,0.000113059076477423,1.79943660263298e-05,2.09356056465944e-07,0.00167021916946424,0.000190298318082706,0.00512348841846734,0.00033999234444309,0.00921297828812804,0.0540019847028376,0.0245123848706867,0.00852293580491736,0.00305393185433827,0.000191037417290002,0.0332930655334097,0.0115143608740909,0.058226618843593,0.0145747026767321,0.000270256437597865,0.00858535656846844,0.00239494436416535,0.000225122557238532,3.57897836797652e-05,4.15510050168536e-07,0.00332438145314418,0.000378714753949773,0.0101999167156184,0.000676770361645712,0.010851012976749,0.0299681441528379,0.0173217029174496,0.00640842766690373,0.00210881318679953,0.000125413765654364,0.0203967768955082,0.00731576152775774,0.0374776299783857,0.013066497836219,1,0.0675921158278742,0.215296462630577,0.0314395273393951,0.0111031067416996,0.00511151043930738,0.0124980360635757,0.0657644276405877,0.225330720875506,0.113172749647337,0.0473662953101776,0.0045785512878859,0.0465854929908939,0.000992028408912513,0.000123550679042709,2.62455206308275e-05,0.000156983790427177,0.00434560716896207,0.0510142574048321,0.0128693347392949,0.00225481920746695,0.0528807685768292,0.176493364337315,0.0262250749894095,0.00885952469751906,0.00352002215819771,0.00934230116147531,0.0438530562642935,0.17471559797237,0.0923143335987938,0.039907849011526,0.00912319698591299,0.0927042580205635,0.00197548965462856,0.00024621120541515,5.22346476844713e-05,0.00031239505999716,0.00864835317537937,0.101533118497812,0.0256127857163728,0.00448710143137911,0.0467731116914804,0.188680899241186,0.0268758335932821,0.00950085068551834,0.00274409464586268,0.00905540887840017,0.0523034902568938,0.145741083615251,0.0847630774651026,0.0469647918636702,1,0.125711401684548,0.153667300656084,0.231666226965832,0.0840654037269767,0.0131008374534596,0.018516004144322,0.128778709374152,0.110830270244961,0.252861529468394,0.0328775158567437,0.0158415773098906,0.0237254691058913,0.0539207774470232,0.00709453918509126,0.000172048019294009,0.000344500823549207,0.0166138627933037,0.0122701814846587,0.0642487056074149,0.00107798447644621,0.0933078747871401,0.125571709374188,0.192554903321057,0.057641914568591,0.0101538391215454,0.0142206077911559,0.0913809082717256,0.0872459382906884,0.206073311506856,0.0264168206598055,0.0315656678904314,0.0472191941345362,0.107319155631912,0.0141258774597233,0.000342798566269057,0.00068559080289975,0.0331142624325554,0.0244920924011963,0.127864365786331,0.00215349689906993,0.0742678282484252,0.152049037442999,0.193907403536132,0.0670834254793166,0.00895023400383962,0.0117784158647716,0.111985224589531,0.127142188873846,0.224268566340102,0.0373303469892755,1
0.00560452898061323,0.017457721254486,0.0279887074810866,0.00279616354651011,0.00118713459617556,1.24044956386695e-05,0.0316146827612903,0.0117148830922221,0.0556554348154371,0.0383933928369197,3.15685832405243e-05,0.000305192607264387,0.000784206446703796,7.73950935517972e-06,1.41150051822236e-06,1.50602727600592e-10,0.00100398512037749,0.000137446546769345,0.00311308533943175,0.00147920158686907,0.00401142169630724,0.0133490101173848,0.0203926908808472,0.0019826127793846,0.00089842770839098,8.53811036168407e-06,0.0254366751163167,0.0090093534251484,0.0437637896684665,0.0287576232029097,6.28195241380331e-05,0.000608437417385812,0.00156363951919137,1.55192073258611e-05,2.80811262246404e-06,3.03717296128913e-10,0.00199843676442224,0.000273928272688521,0.00619459088611214,0.00294585220070799,0.00309598751906725,0.0127057958418337,0.0204900046590086,0.00315797627640019,0.000894779809486952,1.30680107468934e-05,0.0149782291323348,0.00686950675551969,0.0489018880286683,0.0280438327521486,1,0.0148092635533742,0.0400286157371015,0.00757655867105842,0.00225767854410058,0.000648232063264029,0.00104522768029878,0.0336431887241334,0.030747636981599,0.0305176066209896,0.0164196894777153,0.000219230633637389,0.00160464740750837,5.67858054425458e-05,5.04114367039103e-06,4.19615731889034e-07,1.0957988529118e-06,0.0011367015180471,0.000948902902929263,0.00093599180313698,0.00027094976975148,0.0100125714195414,0.0318211407319648,0.00512416749798571,0.00158142060857793,0.000403029059132633,0.000769780257849589,0.0252797672019397,0.0246721271859357,0.0232079751791006,0.0117497772279917,0.000437430139120763,0.00319891405790757,0.000113905362620759,1.01122974411797e-05,8.35351739794587e-07,2.18273822848574e-06,0.00226286984443111,0.00188957484144846,0.00186262722676854,0.0005392009414244,0.0160353063962602,0.0459135077757733,0.0082290878361068,0.00254073195528465,0.000260959594730147,0.00114724288421649,0.0173631793940175,0.0336530082788794,0.0209082847424525,0.0144352434698437,1,0.0257364360082995,0.0337608512762607,0.0820754669786367,0.0337351464625757,0.00246962039694801,0.00191795758633038,0.016994230647031,0.0321234676364702,0.0790454009582519,0.026884679416351,0.000662726884542625,0.00114303523649983,0.00674216523829996,0.00113909636849917,6.12244132962205e-06,3.68588718344366e-06,0.000290235884126659,0.00103704584661861,0.00626476428189914,0.000725508469070256,0.0184946755191613,0.0250706594186621,0.0597398212671246,0.0248554403003877,0.00173645512506471,0.00135841981793127,0.0117746377874157,0.0246894012374398,0.056582708890763,0.0175375693792512,0.0013217766821723,0.00227706735345364,0.013444650766064,0.00227141579930624,1.21879069698382e-05,7.34579135177513e-06,0.000577533192194457,0.0020636319410294,0.0124813168619794,0.00144466191456816,0.0227760127392396,0.0399240648769501,0.0895224465532814,0.0388483820606633,0.0025367094862459,0.00217461684153535,0.0120068373952304,0.0181821015333869,0.0890329279120676,0.0170156120200917,1
0.0028687098987684,0.000969726416515695,0.00775699116934501,0.000285546419561017,0.000519954461827412,0.000229631502638426,0.0226049667657742,0.0092984999166087,0.0137737075653365,0.00936869450077423,8.26679999821059e-06,9.42921975472677e-07,6.03595593116951e-05,8.11690480916834e-08,2.71708002196141e-07,5.29911275217701e-08,0.000513424099741195,8.65398169893996e-05,0.000190276266402539,8.76267625787291e-05,0.00218081793564597,0.000685655521036804,0.00559085236474097,0.000159955308226535,0.000266194517438769,4.93204495158318e-05,0.0177859331371595,0.00779409433932139,0.0103893043662323,0.00742712950009426,1.64521412772434e-05,1.87694376486748e-06,0.000120228647753748,1.62030105026916e-07,5.38551186602468e-07,1.0517313495763e-07,0.00102180644049553,0.000172554716574396,0.000379028885881187,0.000174960166772615,0.00147743863426632,0.00100457251450695,0.00865958822317107,0.000199083108464797,0.000148897178301336,3.74217644875636e-05,0.0185426305039066,0.00596727995491926,0.0153814563487783,0.00748011915302904,0,0.000952179767310455,0.00367726225968907,0.00092215929752941,0.000351420717559223,0.000569671735946045,6.82541362409031e-05,0.00828207205448408,0.0114209532237797,0.00350061978284007,0.000945357510830909,9.04188356095743e-07,1.34736474986866e-05,8.5203198310962e-07,1.23751065067063e-07,3.26112623100336e-07,4.67797818574914e-09,6.85981882397384e-05,0.000130808111077307,1.21092557856782e-05,8.70424094279633e-07,0.000561758101126805,0.00270621629446293,0.000647351591925174,0.000163512700166739,0.0002847184416266,4.74558792778461e-05,0.00595246540038436,0.00923185687313441,0.0025302679889942,0.000652343357542749,1.80611375496039e-06,2.69267954750854e-05,1.69814954336797e-06,2.46628632126937e-07,6.44491936726371e-07,9.31286356079417e-09,0.000136847478535307,0.000260576104555967,2.43021859120844e-05,1.75976765843542e-06,0.00064756028069042,0.00408819118964922,0.000415107537107194,0.000156099504191456,0.000182372758080695,7.2813588874785e-05,0.00496336132035373,0.00744550851336026,0.00393336119749352,0.00102833502524591,0,0.0106628590599775,0.00236974730993946,0.00500656453073724,0.0136008156161444,0.000526985971644952,0.000117571700734628,0.0101177200989205,0.0264139704559157,0.00471557779575817,0.0100791973885831,0.000114237747355488,5.60748844536669e-06,2.51612241321128e-05,0.000185849449445736,2.7882540186122e-07,1.37923866889971e-08,0.000102872652756148,0.000699129056847061,2.23195060099967e-05,0.000101786934726201,0.0084608104640904,0.00162776956214308,0.0036928740850197,0.0090886846865801,0.000271632268882744,8.07113734467474e-05,0.00831153278604825,0.0210102811804286,0.00327622029199766,0.00804461662571228,0.000227362030330203,1.11948611366546e-05,5.00976811412014e-05,0.000369902162462998,5.54874851300078e-07,2.75458330012665e-08,0.000204726504879301,0.00139332974290188,4.44431729620421e-05,0.000202867955731239,0.00773698451784632,0.00262205448657316,0.00532023648646962,0.00623201624090782,0.000158082042979451,0.000130092729110239,0.00530089884631736,0.0150411867291918,0.005214573777747,0.00589784117911238,0
0.00585845816193636,0.0393977594769798,0.0201575818810598,0.00586239753089667,0.000721508572510817,0.0002333939363095,0.0190488735834695,0.00831285902124134,0.0401035455157345,0.0247212185359242,3.4460230158212e-05,0.00155932724226772,0.000408143064223083,3.4470418194638e-05,5.23190533842002e-07,5.47366251252684e-08,0.000362720812091946,6.94040357500502e-05,0.00161586747415691,0.000611506627084972,0.00385042629134552,0.0180814317219403,0.00938236395672418,0.00309021112973297,0.000425631999977556,8.02366336321559e-05,0.0158400151729327,0.00639438792334235,0.0234603279735908,0.0139830785976031,6.86092057305237e-05,0.00310371281537804,0.000812398647058548,6.86656131657307e-05,1.04003167238792e-06,1.08651375299952e-07,0.000723761462271598,0.000138159488035777,0.00321607721314023,0.00121957489881704,0.00360344702206746,0.0199510799574372,0.0113310249944711,0.00282613023441076,0.000198064121364391,4.39275952182424e-05,0.0134781140130959,0.00408307925132931,0.0189653913550164,0.0113958817779691,1,8.22891944361897e-05,0.000173134470178383,0.000519544707845165,0.000324237084172654,0.000458050729424863,3.29422630811375e-06,0.00123972522931275,0.00971380507512036,0.000226312173949333,4.50160020969174e-05,6.79650930272245e-09,2.99793841525805e-08,2.7127907984058e-07,1.05657920958891e-07,2.10863477931185e-07,1.08934874094334e-11,1.53210067007515e-06,9.44422163628593e-05,5.12643331361116e-08,1.97604999326066e-09,5.64649182100716e-05,0.000127867561926201,0.00025409235191037,0.000105723664766798,0.000215211663993317,2.35083988623866e-06,0.000767624872552156,0.00776119335769542,0.000166221703467403,3.19693198400398e-05,1.35324761092628e-08,5.98033471130123e-08,5.37622847151846e-07,2.09132737005549e-07,4.18525337352014e-07,2.16902562933169e-11,3.06121249160524e-06,0.000188321703436399,1.02224361191332e-07,3.9926088223978e-09,6.25039691503756e-05,0.00019730127085837,0.000149934957443374,6.93826177397835e-05,0.000126482647032693,3.64246374476846e-06,0.00104784759165805,0.00533347605653208,0.000263226154624038,4.99509792584407e-05,1,0.0208626065862625,0.144101138031665,0.104633318207073,0.0235240013618686,0.0178724067259957,0.0178025783742438,0.0402025866605842,0.0628815742459497,0.0925924386754192,0.0161889769526661,0.00043658192407146,0.0208614802311747,0.0110028492343098,0.000555583151750238,0.000320903166592761,0.000318368487008316,0.00162192183586973,0.00392704781238809,0.00861573778044654,0.000262777275064624,0.0139296297689455,0.0755473347559658,0.0519995951909834,0.0132718257055946,0.0109913001645683,0.0109487139824692,0.0238559532635638,0.0393461935025617,0.0500838550440253,0.0123656681077283,0.000869646755663973,0.0415176981349136,0.0218951007373162,0.00110614722890044,0.000638719396304461,0.000633708433184295,0.00322989628647629,0.00786150495217405,0.0171460014287812,0.000523538852437177,0.0114891892781288,0.0800600804921459,0.0631948353056029,0.0122928510090282,0.0136002329108441,0.014177654561647,0.0280254313768042,0.0380914149508486,0.0517183054084981,0.0105593587779161,1
0.011092495171712,0.0670155540308062,0.050483878750355,0.00880700969742079,0.00295237936394681,0.00032282068719676,0.0408831611494249,0.0185085614370852,0.084291380030345,0.0458197625886267,0.000123489908081312,0.00450539986650022,0.00256061598215009,7.79224981276775e-05,8.7579804163415e-06,1.04730238750387e-07,0.00167980213872778,0.000343838643188839,0.00713356454667995,0.00210826362960399,0.00888473666404688,0.0533936457252063,0.0413212874793873,0.00600584331980197,0.00185536305678116,0.000110402174904316,0.0344407181810157,0.0150447255206416,0.0689872175809541,0.0349016705342282,0.000245901606261572,0.00897371197624173,0.00509642453662527,0.000155096134197969,1.74295869594849e-05,2.0731894064018e-07,0.00334283469893341,0.00068467159529395,0.0142028778137822,0.00419713762680557,0.00880168804759765,0.0371398131359674,0.0282352902991078,0.00529117978754858,0.00121695563932811,6.63561905468529e-05,0.0276799306314094,0.0140804986771004,0.0508273181831413,0.0477231350762219,1,0.209833338694929,0.292829836780699,0.0569852716759533,0.02695839849042,0.0142696683267161,0.009745027373299,0.164907835780175,0.121182601933414,0.213267267359635,0.123457225443407,0.0442500627545249,0.0861204552030878,0.00326355017578796,0.000729716050032959,0.000204235187366694,9.54104515444254e-05,0.0272339908376673,0.0147586918447641,0.0457108273070887,0.0152794482347673,0.132083304942541,0.2043716101983,0.0366976445508808,0.0171042617977605,0.00886718458206751,0.00546045366303415,0.113793076541318,0.0845658532255368,0.151917047999428,0.0830708347956598,0.0880584003427198,0.171437922259504,0.0064943858791315,0.00145281544674598,0.000406827643594488,0.000189898112200876,0.054291443540915,0.0293694374054296,0.0909639206080121,0.0304447170902441,0.156337218780938,0.259759507597932,0.0426178812750576,0.0200864114924494,0.0104719098561312,0.00662268734564918,0.131896161907727,0.0575852455385048,0.186909885338611,0.089878615735167,1,0.0787765460922098,0.0682378789649298,0.157257258408972,0.0303855559285168,0.0145119694598863,0.0154398781939977,0.113601166216532,0.0981593577896898,0.125367463813062,0.0263567386687645,0.00623682842840515,0.00467838138251272,0.0248417252200145,0.000927125296039167,0.000211355421619367,0.000238853916914527,0.0129698664390555,0.00963890391961258,0.0157863331142448,0.000697312849033455,0.0607656609188567,0.047631506944098,0.124455113193899,0.0214197651311567,0.0102913798192597,0.0107913274995195,0.089489464251781,0.0776440233849706,0.101017057451732,0.020697101943717,0.0124113226995585,0.00931025987298361,0.0494471706816724,0.00184561361186232,0.000420841192250443,0.000476032080299276,0.0258102296333563,0.0192258163492261,0.0314225706340041,0.00138846877946979,0.0616542376836705,0.0480307666921292,0.0888365470073982,0.0161053560947421,0.0120151536832364,0.00805951136016264,0.0642271096730784,0.0771822293474079,0.0783957800291828,0.022219831073257,1
0.00400914437863353,0.0455772004491072,0.0155614378130824,0.000681994625228254,0.000630044893507048,9.0932258891733e-06,0.0220673998922239,0.00832781452144528,0.0451063941343564,0.0306658652026457,1.61125959002968e-05,0.00207250399574332,0.000241682118547635,4.59644172283264e-07,3.97327990246261e-07,8.11184438349161e-11,0.000489167818744761,6.94335845339313e-05,0.00203984528523818,0.000945107804227021,0.00303062754956061,0.0261812373866377,0.00709056611236148,0.000504229137077784,0.000337088871063975,6.58680895810735e-06,0.0181828144805702,0.00662302275703967,0.0334131684369035,0.0217965481012102,3.21052257355312e-05,0.00413935347578513,0.000482603856545047,9.22461363478737e-07,7.91238627119425e-07,1.63398931113707e-10,0.000973682161016638,0.000138438670819507,0.00406417633396749,0.00188077743306795,0.00260341597484569,0.0271237940534571,0.00856901955035588,0.000688905649393623,0.00028174599940224,1.02004929893838e-05,0.0153575218763119,0.00566185252915189,0.0279378133541987,0.0221758534863103,1,0.154583883512449,0.119627266893151,0.0221322719054432,0.00826805547701237,0.00571329187225583,0.00255944910537185,0.0814304522766858,0.043644599531642,0.0510929780548313,0.0425378321234875,0.0240124639427521,0.0143087120647078,0.000492298413588044,6.81557768627174e-05,3.23948732081627e-05,6.54224358093448e-06,0.00653507161139566,0.00191314902068302,0.00262358358106839,0.00177769062470197,0.116002838204839,0.0898903394711017,0.0163380592906944,0.00674348072309701,0.00437561570348821,0.00197917778352782,0.066849950405067,0.0320078694088044,0.0416186240761536,0.0306035740166351,0.0477874464149717,0.0285477946282228,0.000979659929859481,0.000136175277512958,6.48737838840589e-05,1.30595386410279e-05,0.0131331645501926,0.00380831250278155,0.00522095556347007,0.00357826919249585,0.172642701083903,0.124876920064039,0.0254806272276915,0.0103612630845688,0.00602450362988487,0.00274672241365994,0.0785456555816487,0.0289906250250282,0.0536739495785829,0.0467860423325325,1,0.0298373873415497,0.033324214332593,0.096207484542123,0.0499475810145873,0.00624986371050535,0.00451894550809901,0.0305648796413102,0.0350946503172168,0.0505597362465195,0.0247445680963079,0.000894683867093412,0.0011119991688453,0.00927928958474638,0.00250690627680947,3.92305560068546e-05,2.03518074257693e-05,0.000936771288672507,0.0012377655969326,0.00256524791816674,0.000615350269057449,0.0234655861651983,0.0266347353069672,0.0684824269004298,0.0360201350052347,0.00343556143698871,0.00342265564250303,0.0239110908077713,0.0276159666532915,0.0388267932727235,0.0195789249657063,0.00178045264958419,0.00221694241921866,0.018488664843238,0.00498909248218364,7.80889142655218e-05,4.06707695255972e-05,0.00186614741590957,0.00246315014501595,0.00510864485228047,0.0012245635175997,0.0247312018220817,0.0315323534454879,0.0657810037300419,0.0480352892470199,0.00391542137175047,0.0053727273490002,0.0273380468041111,0.0309888929652346,0.049478400664396,0.0168198489163626,1
0.00147662402344654,0.0016482897426254,0.00458666104435105,0.000330329324556642,0.000634540277911061,0.000231028073104437,0.0125649292753691,0.0085003625717122,0.0152580892006764,0.00852603359968177,2.18977381234103e-06,2.68583186964159e-06,2.11310610604164e-05,1.09662477748625e-07,4.04614491120457e-07,5.36403333202359e-08,0.000158646215749841,7.25113792097221e-05,0.000231932599004214,7.29988650354738e-05,0.000923982769914486,0.00119406818110139,0.00269147990550332,0.000130514198849344,0.000320218061297232,6.11081918496619e-05,0.0101406585450151,0.00652718018879191,0.0109772872981928,0.00695080574097019,4.35476135972922e-06,5.3891970645229e-06,4.20615881317191e-05,2.18231615806588e-07,8.04049182212454e-07,1.06467552605516e-07,0.000315726921332949,0.000144404942262206,0.000463567724917324,0.000145314478707328,0.000678465195534315,0.00180945380346928,0.0019579593672382,6.7137002048008e-05,0.000195736055788187,3.66397767214483e-05,0.00832622199042448,0.00615941628116378,0.00717037623016594,0.00539424841695941,0,0.00945744503730681,0.0087823314354901,0.00227828751634743,0.000953254540349499,0.000668615160734995,0.000197496486533949,0.0158533881940423,0.0125880869131398,0.0061070115488092,0.00433971125086598,8.92226571462172e-05,7.68893471770537e-05,5.1528213998182e-06,9.07480889071871e-07,4.49284357147428e-07,3.86723362095183e-08,0.000250507983837409,0.000159171125617259,3.66417662284043e-05,1.89047528853451e-05,0.00685023582103317,0.00614326054027113,0.00162349409535257,0.000658737576275746,0.000470383732975247,0.000143556300521939,0.0120868549972353,0.0105266849912772,0.00433693537003532,0.00245652338513442,0.000178209605332954,0.000153629094658801,1.03176405549504e-05,1.81160390035994e-06,8.9275605362514e-07,7.74824263499146e-08,0.000500584753602676,0.000316818749024029,7.37536899282341e-05,3.76427742606396e-05,0.0104412754060573,0.00909239776076753,0.00241722129689112,0.000979846278708619,0.000544886954369459,0.00021889248526908,0.0117569981272735,0.00715159408839814,0.00676988488954987,0.00211746762869847,0,0.0100313523860851,0.00297446225385342,0.00480747828356269,0.00371621278819717,0.000720024995126692,0.000472577142137056,0.0126918867586154,0.024831189538156,0.00240820481729409,0.00870576050651589,0.000100936021435808,8.76411553103188e-06,2.27574153195179e-05,1.35038289726673e-05,5.20733566603911e-07,2.22630553150677e-07,0.000161681853183029,0.000617848205413162,5.76060334082012e-06,7.61662711664351e-05,0.00821467572240891,0.00216390773535514,0.00349687410544291,0.00266729522821829,0.000470709569940924,0.000290142746011207,0.0101214235556661,0.0195726931495311,0.00158691540251649,0.00690757217746746,0.000201002800381343,1.75674229778901e-05,4.57543075866056e-05,2.7246485256389e-05,1.03628108210112e-06,4.44842656358466e-07,0.000321955021630114,0.00123131493019755,1.15312496091516e-05,0.000151568197609083,0.00651908689053676,0.00330094820901333,0.0054673101108461,0.00410820111254836,0.000273022338316766,0.000374079974861471,0.00806591757436626,0.013380968786379,0.00257485433399739,0.00572674206195683,0
0.0026750592500781,0.0393418641575937,0.0144129623954971,0.00403661580726167,0.00126693961071286,0.000231605138822373,0.0172836708625882,0.00930869697099632,0.0485496278733007,0.0195733421483376,7.18520580967701e-06,0.00155457659895153,0.000208160008361986,1.63749989258644e-05,1.61248945720013e-06,5.39035881203017e-08,0.000299922414148349,8.70596852362095e-05,0.00236099437006417,0.000384469838746079,0.00182229030495177,0.0142157378877758,0.00521268540649835,0.0012969398182701,0.000613999882492038,7.03466984335281e-05,0.011982178326411,0.00715296173133278,0.0188991845637468,0.0113753124288837,1.4304974081189e-05,0.00309450537538342,0.000414848696105669,3.25868382147771e-05,3.20582899213357e-06,1.06995658866243e-07,0.000597120745724033,0.000173270147419435,0.0047060954019323,0.000765657757779002,0.00153073712113817,0.0213698760951193,0.00677828942392561,0.00156859984672838,0.000461619795974201,3.80076973842135e-05,0.0100471142831166,0.0045616626302116,0.0233675129419688,0.0100844843799353,1,0.0105519038108245,0.00597820413154628,0.000577115999831938,0.000333988224439451,0.000677018189004897,0.000231570293365313,0.0176594812874533,0.0130195042394997,0.000923393804146565,0.00335347241054941,0.000111712750417738,3.58872429390931e-05,3.34137153254333e-07,1.12012168681927e-07,4.60544724866949e-07,5.3892867418516e-08,0.000312883983146127,0.000168960298151072,8.54331893336582e-07,1.12507923434484e-05,0.00457727294720582,0.0022111163909932,0.000292537108538161,0.000128415599338125,0.00038408250231115,6.97301015102273e-05,0.0102137457933264,0.0100874372144059,0.000457123266324213,0.00124504845702286,0.000222495990200569,7.14466083846962e-05,6.65529343348796e-07,2.21940978615568e-07,9.16292522104536e-07,1.0696804128997e-07,0.000623165286202167,0.000337594405006081,1.7024053502006e-06,2.24402438722159e-05,0.00529800451389952,0.00257591627716263,0.000164283509843043,7.76036625624134e-05,0.000191606158357705,4.03034767217216e-05,0.00905422887173003,0.00794043323455698,0.000371674578354127,0.00127871129143648,1,0.0278154878919895,0.185981708896358,0.229477111566288,0.0708932674814007,0.0142057718414249,0.0125565644316671,0.0449513289934975,0.139726765372175,0.132623833472527,0.0237548117163568,0.00077627930728557,0.0346872149673054,0.052843962765514,0.0050159792136856,0.000202764391649697,0.000158145966418025,0.0020211561460113,0.0195843412413047,0.0176773697110535,0.000564819603437561,0.0175327690628241,0.0915806820631062,0.11850520811036,0.0302608276086064,0.00812856850307759,0.0071479771123139,0.0274351321390999,0.0776702683216709,0.0720537421980888,0.0153387749035826,0.00154609697283478,0.0691024457477496,0.105239117398313,0.0100164560653667,0.000403553344052859,0.000315020421563001,0.00403135990217911,0.0390099666209444,0.035178003454238,0.00112624340664438,0.0156593836357529,0.126091705329951,0.14858791547891,0.0373166679608478,0.00815259558236243,0.00959920615209787,0.0241415734255129,0.0966723103871193,0.0892108151650427,0.0112700224888633,1
0.0152745161919776,0.0747140991137374,0.0584830127341962,0.00973373817899416,0.00243373151519405,0.00149305045300782,0.0445922853120736,0.0185225536366252,0.0946069929685233,0.0512061101999478,0.000234338565743477,0.00560715447969981,0.00343412016350283,9.52118590586077e-05,5.95211560466137e-06,2.24037824894155e-06,0.00199807533710564,0.000344805306041013,0.00899546038736525,0.00263348442087282,0.011785405541252,0.0587790683204503,0.0487330476253511,0.00738591459343068,0.00163354471318331,0.000773320073794523,0.0353939023480872,0.0140755391982447,0.0763762519353381,0.0376335650551873,0.000466470784822859,0.0111611509863201,0.00683715344598932,0.000189481039032439,1.18436974888261e-05,4.45837600933275e-06,0.0039765527309559,0.000686159826740273,0.0179005757523298,0.00524234353049987,0.0117012318667425,0.0424717393898669,0.0298069016666917,0.00620361151772739,0.00102707666840097,0.00080385229404204,0.027733295087156,0.0104922568768601,0.0455613146243175,0.0259867030770489,1,0.138207436042401,0.158830040289348,0.0282161735481387,0.0084662758878405,0.00413714303272675,0.00156180105331417,0.066825140502519,0.126821739941242,0.0765296264950491,0.0345849351790789,0.0191907736598618,0.0252899560676557,0.000800134975101434,7.20132194115008e-05,1.72018911112794e-05,2.4507038179402e-06,0.00448531618291563,0.0161494854258473,0.00588618620477843,0.00120198897752216,0.0964361999909919,0.119559913201967,0.0207387867514113,0.00637064084067765,0.0026922153967494,0.00097775690835755,0.0571657087976462,0.0943297042651403,0.0552528597303636,0.0268168239428671,0.0381930203259319,0.0503903245590755,0.00159226862137694,0.000143330111625991,3.42266551227442e-05,4.87736126393538e-06,0.00892829279795295,0.0321513237907005,0.011713500501351,0.00239209603391228,0.084213555894779,0.16454755542279,0.0146727672383071,0.00400532070161329,0.00236716873284457,0.000634855232063657,0.0557452737055644,0.0787903006265194,0.0455490887445795,0.022709617073078,1,0.0720618491137745,0.160386603181726,0.219208912356922,0.0873846363731716,0.00989454859148772,0.0145129061334521,0.0894602936103104,0.101153890198856,0.163420977565149,0.0245776367994446,0.00521417074833995,0.0258321175340166,0.0482505671738985,0.00763375412508133,9.83553278765497e-05,0.000210914926215974,0.0080245307017893,0.01020742010208,0.0268375972224244,0.000606367288822047,0.0576601169874467,0.125793857836345,0.163826755890082,0.0622035341501203,0.00744766358404463,0.0109189061289126,0.0701695775418934,0.0766877784847558,0.133675448917869,0.0201587311536502,0.0103808997624907,0.0514267192999851,0.0960576991147157,0.015231333521962,0.000195750511000583,0.000420481049513398,0.0159875459144768,0.0203868297749776,0.0534096367249398,0.00120739198174354,0.0515909656218954,0.180495099681697,0.161230569331851,0.0675243790872542,0.0058938980104773,0.00748684812940262,0.0625260944108881,0.0578351744210604,0.168785623267811,0.0141082466321506,1
